3997.91411	0.06263
3995.98555	0.06281
3994.05698	0.06297
3992.12842	0.06347
3990.19985	0.06389
3988.27129	0.06423
3986.34272	0.06464
3984.41416	0.06497
3982.48560	0.06524
3980.55703	0.06537
3978.62847	0.06522
3976.69990	0.06525
3974.77134	0.06565
3972.84277	0.06601
3970.91421	0.06628
3968.98564	0.06663
3967.05708	0.06666
3965.12852	0.06642
3963.19995	0.06655
3961.27139	0.06688
3959.34282	0.06678
3957.41426	0.06658
3955.48569	0.06679
3953.55713	0.06701
3951.62856	0.06711
3949.70000	0.06747
3947.77144	0.06788
3945.84287	0.06805
3943.91431	0.06827
3941.98574	0.06836
3940.05718	0.06773
3938.12861	0.06701
3936.20005	0.06693
3934.27148	0.06756
3932.34292	0.06861
3930.41436	0.06888
3928.48579	0.06791
3926.55723	0.06732
3924.62866	0.06764
3922.70010	0.06772
3920.77153	0.06761
3918.84297	0.06817
3916.91440	0.06869
3914.98584	0.06784
3913.05728	0.06627
3911.12871	0.06543
3909.20015	0.06549
3907.27158	0.06645
3905.34302	0.06833
3903.41445	0.07022
3901.48589	0.07084
3899.55732	0.07037
3897.62876	0.06900
3895.70020	0.06744
3893.77163	0.06724
3891.84307	0.06823
3889.91450	0.06853
3887.98594	0.06816
3886.05737	0.06913
3884.12881	0.07068
3882.20024	0.07092
3880.27168	0.07070
3878.34312	0.06975
3876.41455	0.06860
3874.48599	0.06920
3872.55742	0.07100
3870.62886	0.07228
3868.70029	0.07236
3866.77173	0.07170
3864.84316	0.07182
3862.91460	0.07230
3860.98604	0.07162
3859.05747	0.07093
3857.12891	0.07175
3855.20034	0.07425
3853.27178	0.07748
3851.34321	0.07765
3849.41465	0.07490
3847.48608	0.07307
3845.55752	0.07302
3843.62896	0.07440
3841.70039	0.07625
3839.77183	0.07837
3837.84326	0.08041
3835.91470	0.08082
3833.98613	0.08004
3832.05757	0.07952
3830.12900	0.07934
3828.20044	0.07937
3826.27187	0.08014
3824.34331	0.08150
3822.41475	0.08330
3820.48618	0.08587
3818.55762	0.08714
3816.62905	0.08696
3814.70049	0.08659
3812.77192	0.08569
3810.84336	0.08533
3808.91479	0.08660
3806.98623	0.08939
3805.05767	0.09199
3803.12910	0.09395
3801.20054	0.09653
3799.27197	0.09761
3797.34341	0.09684
3795.41484	0.09647
3793.48628	0.09613
3791.55771	0.09605
3789.62915	0.09677
3787.70059	0.09809
3785.77202	0.10016
3783.84346	0.10240
3781.91489	0.10388
3779.98633	0.10542
3778.05776	0.10736
3776.12920	0.10834
3774.20063	0.10895
3772.27207	0.11057
3770.34351	0.11335
3768.41494	0.11619
3766.48638	0.11804
3764.55781	0.11978
3762.62925	0.12159
3760.70068	0.12391
3758.77212	0.12742
3756.84355	0.13036
3754.91499	0.13219
3752.98643	0.13529
3751.05786	0.14063
3749.12930	0.14553
3747.20073	0.14772
3745.27217	0.15014
3743.34360	0.15421
3741.41504	0.15788
3739.48647	0.16152
3737.55791	0.16695
3735.62935	0.17452
3733.70078	0.18191
3731.77222	0.18625
3729.84365	0.18914
3727.91509	0.19247
3725.98652	0.19741
3724.05796	0.20376
3722.12939	0.20995
3720.20083	0.21511
3718.27227	0.21911
3716.34370	0.22333
3714.41514	0.22957
3712.48657	0.23985
3710.55801	0.25532
3708.62944	0.27077
3706.70088	0.28211
3704.77231	0.29273
3702.84375	0.30587
3700.91519	0.32254
3698.98662	0.33971
3697.05806	0.35587
3695.12949	0.37350
3693.20093	0.39274
3691.27236	0.41424
3689.34380	0.44154
3687.41523	0.47359
3685.48667	0.50132
3683.55811	0.52532
3681.62954	0.55207
3679.70098	0.58371
3677.77241	0.61782
3675.84385	0.65765
3673.91528	0.70867
3671.98672	0.75024
3670.05815	0.78795
3668.12959	0.83830
3666.20103	0.88406
3664.27246	0.92279
3662.34390	0.96479
3660.41533	1.01086
3658.48677	1.05665
3656.55820	1.10511
3654.62964	1.15904
3652.70107	1.20526
3650.77251	1.24625
3648.84395	1.30104
3646.91538	1.36536
3644.98682	1.41277
3643.05825	1.44993
3641.12969	1.48891
3639.20112	1.53263
3637.27256	1.57669
3635.34399	1.61940
3633.41543	1.66276
3631.48687	1.70471
3629.55830	1.74762
3627.62974	1.80107
3625.70117	1.84926
3623.77261	1.88153
3621.84404	1.91240
3619.91548	1.94811
3617.98691	1.99118
3616.05835	2.03364
3614.12979	2.07058
3612.20122	2.10894
3610.27266	2.14692
3608.34409	2.18588
3606.41553	2.22815
3604.48696	2.26715
3602.55840	2.30259
3600.62983	2.34191
3598.70127	2.38336
3596.77271	2.42202
3594.84414	2.46139
3592.91558	2.50221
3590.98701	2.54014
3589.05845	2.57531
3587.12988	2.61663
3585.20132	2.66201
3583.27275	2.70087
3581.34419	2.73705
3579.41562	2.77650
3577.48706	2.81879
3575.55850	2.86234
3573.62993	2.90702
3571.70137	2.94968
3569.77280	2.98939
3567.84424	3.03034
3565.91567	3.07992
3563.98711	3.12963
3562.05854	3.17151
3560.12998	3.21327
3558.20142	3.25747
3556.27285	3.30195
3554.34429	3.34592
3552.41572	3.39252
3550.48716	3.43991
3548.55859	3.48448
3546.63003	3.52864
3544.70146	3.57457
3542.77290	3.62058
3540.84434	3.66724
3538.91577	3.71586
3536.98721	3.76422
3535.05864	3.81132
3533.13008	3.85572
3531.20151	3.89932
3529.27295	3.94574
3527.34438	3.99546
3525.41582	4.04557
3523.48726	4.09502
3521.55869	4.14454
3519.63013	4.19290
3517.70156	4.24157
3515.77300	4.29030
3513.84443	4.33625
3511.91587	4.37814
3509.98730	4.42087
3508.05874	4.47034
3506.13018	4.52299
3504.20161	4.57123
3502.27305	4.61530
3500.34448	4.66043
3498.41592	4.70436
3496.48735	4.74612
3494.55879	4.79418
3492.63022	4.84997
3490.70166	4.90302
3488.77310	4.95041
3486.84453	4.99726
3484.91597	5.04376
3482.98740	5.08962
3481.05884	5.13841
3479.13027	5.18562
3477.20171	5.22636
3475.27314	5.27036
3473.34458	5.32410
3471.41602	5.37936
3469.48745	5.43068
3467.55889	5.48238
3465.63032	5.53436
3463.70176	5.57913
3461.77319	5.61755
3459.84463	5.66620
3457.91606	5.72971
3455.98750	5.79197
3454.05894	5.83849
3452.13037	5.87613
3450.20181	5.92162
3448.27324	5.97325
3446.34468	6.02462
3444.41611	6.07824
3442.48755	6.13647
3440.55898	6.18311
3438.63042	6.21470
3436.70186	6.25777
3434.77329	6.32466
3432.84473	6.39539
3430.91616	6.44731
3428.98760	6.47915
3427.05903	6.49752
3425.13047	6.53815
3423.20190	6.60702
3421.27334	6.66094
3419.34478	6.69577
3417.41621	6.72344
3415.48765	6.74840
3413.55908	6.80807
3411.63052	6.89873
3409.70195	6.95150
3407.77339	6.96994
3405.84482	7.00053
3403.91626	7.05134
3401.98770	7.09870
3400.05913	7.13190
3398.13057	7.16019
3396.20200	7.19088
3394.27344	7.24121
3392.34487	7.29416
3390.41631	7.32217
3388.48774	7.32525
3386.55918	7.34396
3384.63062	7.39563
3382.70205	7.45814
3380.77349	7.51057
3378.84492	7.54394
3376.91636	7.57900
3374.98779	7.59544
3373.05923	7.57594
3371.13066	7.56503
3369.20210	7.61125
3367.27354	7.69567
3365.34497	7.77311
3363.41641	7.80800
3361.48784	7.78048
3359.55928	7.74681
3357.63071	7.77827
3355.70215	7.87094
3353.77358	7.92457
3351.84502	7.90724
3349.91646	7.88412
3347.98789	7.89055
3346.05933	7.88426
3344.13076	7.86628
3342.20220	7.91246
3340.27363	7.98996
3338.34507	8.02326
3336.41650	8.00795
3334.48794	7.99418
3332.55937	7.97432
3330.63081	7.95966
3328.70225	8.01086
3326.77368	8.07374
3324.84512	8.08209
3322.91655	8.06030
3320.98799	8.04338
3319.05942	8.04330
3317.13086	8.05126
3315.20229	8.03419
3313.27373	8.01343
3311.34517	8.02929
3309.41660	8.06430
3307.48804	8.09614
3305.55947	8.11710
3303.63091	8.11794
3301.70234	8.09593
3299.77378	8.06541
3297.84521	8.04427
3295.91665	8.04508
3293.98809	8.01662
3292.05952	7.95815
3290.13096	7.95137
3288.20239	7.98701
3286.27383	7.99617
3284.34526	7.95985
3282.41670	7.92337
3280.48813	7.92839
3278.55957	7.95775
3276.63101	7.97721
3274.70244	8.00377
3272.77388	8.02485
3270.84531	8.01346
3268.91675	8.02753
3266.98818	8.09185
3265.05962	8.11288
3263.13105	8.07247
3261.20249	8.08452
3259.27393	8.13896
3257.34536	8.16548
3255.41680	8.15476
3253.48823	8.13555
3251.55967	8.15220
3249.63110	8.16510
3247.70254	8.13429
3245.77397	8.13400
3243.84541	8.18507
3241.91685	8.17459
3239.98828	8.09836
3238.05972	8.06063
3236.13115	8.09627
3234.20259	8.13973
3232.27402	8.08055
3230.34546	7.92908
3228.41689	7.81920
3226.48833	7.84057
3224.55977	7.96266
3222.63120	8.08985
3220.70264	8.13050
3218.77407	8.08718
3216.84551	8.05234
3214.91694	8.04218
3212.98838	7.97629
3211.05981	7.87082
3209.13125	7.82195
3207.20269	7.82150
3205.27412	7.83823
3203.34556	7.88167
3201.41699	7.92031
3199.48843	7.90189
3197.55986	7.81660
3195.63130	7.71749
3193.70273	7.65229
3191.77417	7.59293
3189.84561	7.51734
3187.91704	7.46212
3185.98848	7.44412
3184.05991	7.42886
3182.13135	7.39824
3180.20278	7.37837
3178.27422	7.35267
3176.34565	7.27945
3174.41709	7.19737
3172.48853	7.15561
3170.55996	7.12780
3168.63140	7.08689
3166.70283	7.03080
3164.77427	6.95770
3162.84570	6.87753
3160.91714	6.78894
3158.98857	6.70042
3157.06001	6.62448
3155.13145	6.56369
3153.20288	6.52401
3151.27432	6.49079
3149.34575	6.43367
3147.41719	6.35247
3145.48862	6.27324
3143.56006	6.21088
3141.63149	6.16590
3139.70293	6.11970
3137.77437	6.04818
3135.84580	5.95474
3133.91724	5.86138
3131.98867	5.77869
3130.06011	5.70778
3128.13154	5.64703
3126.20298	5.58809
3124.27441	5.52382
3122.34585	5.44909
3120.41729	5.36616
3118.48872	5.28531
3116.56016	5.20993
3114.63159	5.13405
3112.70303	5.06011
3110.77446	4.99689
3108.84590	4.93871
3106.91733	4.87615
3104.98877	4.80999
3103.06021	4.74076
3101.13164	4.66819
3099.20308	4.59762
3097.27451	4.52763
3095.34595	4.45635
3093.41738	4.38911
3091.48882	4.32525
3089.56025	4.26175
3087.63169	4.19747
3085.70312	4.13114
3083.77456	4.06149
3081.84600	3.99123
3079.91743	3.92727
3077.98887	3.86913
3076.06030	3.80921
3074.13174	3.74631
3072.20317	3.68428
3070.27461	3.62319
3068.34604	3.56363
3066.41748	3.50642
3064.48892	3.44974
3062.56035	3.39256
3060.63179	3.33577
3058.70322	3.28030
3056.77466	3.22479
3054.84609	3.16889
3052.91753	3.11467
3050.98896	3.06243
3049.06040	3.01081
3047.13184	2.96019
3045.20327	2.91016
3043.27471	2.85923
3041.34614	2.80848
3039.41758	2.75880
3037.48901	2.71053
3035.56045	2.66375
3033.63188	2.61680
3031.70332	2.56937
3029.77476	2.52327
3027.84619	2.47927
3025.91763	2.43625
3023.98906	2.39351
3022.06050	2.35100
3020.13193	2.30868
3018.20337	2.26722
3016.27480	2.22669
3014.34624	2.18652
3012.41768	2.14690
3010.48911	2.10858
3008.56055	2.07179
3006.63198	2.03567
3004.70342	1.99881
3002.77485	1.96111
3000.84629	1.92422
2998.91772	1.88916
2996.98916	1.85549
2995.06060	1.82215
2993.13203	1.78856
2991.20347	1.75530
2989.27490	1.72262
2987.34634	1.69040
2985.41777	1.65890
2983.48921	1.62833
2981.56064	1.59829
2979.63208	1.56838
2977.70352	1.53919
2975.77495	1.51102
2973.84639	1.48293
2971.91782	1.45455
2969.98926	1.42666
2968.06069	1.39998
2966.13213	1.37421
2964.20356	1.34846
2962.27500	1.32267
2960.34644	1.29782
2958.41787	1.27427
2956.48931	1.25125
2954.56074	1.22841
2952.63218	1.20591
2950.70361	1.18330
2948.77505	1.16035
2946.84648	1.13805
2944.91792	1.11677
2942.98936	1.09592
2941.06079	1.07545
2939.13223	1.05527
2937.20366	1.03531
2935.27510	1.01614
2933.34653	0.99785
2931.41797	0.98001
2929.48940	0.96256
2927.56084	0.94573
2925.63228	0.92921
2923.70371	0.91263
2921.77515	0.89599
2919.84658	0.87985
2917.91802	0.86406
2915.98945	0.84745
2914.06089	0.83036
2912.13232	0.81404
2910.20376	0.79836
2908.27520	0.78310
2906.34663	0.76868
2904.41807	0.75502
2902.48950	0.74157
2900.56094	0.72834
2898.63237	0.71547
2896.70381	0.70263
2894.77524	0.68994
2892.84668	0.67771
2890.91812	0.66567
2888.98955	0.65360
2887.06099	0.64189
2885.13242	0.63075
2883.20386	0.61985
2881.27529	0.60907
2879.34673	0.59839
2877.41816	0.58778
2875.48960	0.57746
2873.56104	0.56763
2871.63247	0.55807
2869.70391	0.54854
2867.77534	0.53906
2865.84678	0.52947
2863.91821	0.51984
2861.98965	0.51060
2860.06108	0.50191
2858.13252	0.49378
2856.20396	0.48596
2854.27539	0.47836
2852.34683	0.47098
2850.41826	0.46342
2848.48970	0.45535
2846.56113	0.44697
2844.63257	0.43893
2842.70400	0.43171
2840.77544	0.42497
2838.84687	0.41841
2836.91831	0.41221
2834.98975	0.40626
2833.06118	0.40035
2831.13262	0.39450
2829.20405	0.38866
2827.27549	0.38286
2825.34692	0.37720
2823.41836	0.37153
2821.48979	0.36578
2819.56123	0.36012
2817.63267	0.35449
2815.70410	0.34898
2813.77554	0.34375
2811.84697	0.33862
2809.91841	0.33346
2807.98984	0.32835
2806.06128	0.32341
2804.13271	0.31860
2802.20415	0.31385
2800.27559	0.30930
2798.34702	0.30492
2796.41846	0.30055
2794.48989	0.29620
2792.56133	0.29190
2790.63276	0.28775
2788.70420	0.28372
2786.77563	0.27963
2784.84707	0.27562
2782.91851	0.27180
2780.98994	0.26811
2779.06138	0.26457
2777.13281	0.26117
2775.20425	0.25772
2773.27568	0.25417
2771.34712	0.25074
2769.41855	0.24748
2767.48999	0.24422
2765.56143	0.24110
2763.63286	0.23816
2761.70430	0.23517
2759.77573	0.23214
2757.84717	0.22927
2755.91860	0.22645
2753.99004	0.22366
2752.06147	0.22100
2750.13291	0.21841
2748.20435	0.21582
2746.27578	0.21319
2744.34722	0.21069
2742.41865	0.20838
2740.49009	0.20607
2738.56152	0.20353
2736.63296	0.20102
2734.70439	0.19883
2732.77583	0.19680
2730.84727	0.19473
2728.91870	0.19262
2726.99014	0.19054
2725.06157	0.18856
2723.13301	0.18665
2721.20444	0.18486
2719.27588	0.18322
2717.34731	0.18152
2715.41875	0.17969
2713.49019	0.17797
2711.56162	0.17642
2709.63306	0.17493
2707.70449	0.17339
2705.77593	0.17174
2703.84736	0.17013
2701.91880	0.16867
2699.99023	0.16727
2698.06167	0.16590
2696.13311	0.16464
2694.20454	0.16340
2692.27598	0.16214
2690.34741	0.16096
2688.41885	0.15988
2686.49028	0.15879
2684.56172	0.15759
2682.63315	0.15648
2680.70459	0.15550
2678.77603	0.15441
2676.84746	0.15330
2674.91890	0.15245
2672.99033	0.15172
2671.06177	0.15090
2669.13320	0.14998
2667.20464	0.14912
2665.27607	0.14839
2663.34751	0.14771
2661.41895	0.14696
2659.49038	0.14619
2657.56182	0.14557
2655.63325	0.14511
2653.70469	0.14456
2651.77612	0.14394
2649.84756	0.14336
2647.91899	0.14278
2645.99043	0.14224
2644.06187	0.14179
2642.13330	0.14139
2640.20474	0.14106
2638.27617	0.14075
2636.34761	0.14039
2634.41904	0.13996
2632.49048	0.13963
2630.56191	0.13949
2628.63335	0.13940
2626.70479	0.13929
2624.77622	0.13911
2622.84766	0.13880
2620.91909	0.13849
2618.99053	0.13830
2617.06196	0.13814
2615.13340	0.13798
2613.20483	0.13791
2611.27627	0.13798
2609.34771	0.13807
2607.41914	0.13820
2605.49058	0.13843
2603.56201	0.13853
2601.63345	0.13846
2599.70488	0.13849
2597.77632	0.13874
2595.84775	0.13903
2593.91919	0.13930
2591.99062	0.13959
2590.06206	0.13987
2588.13350	0.14009
2586.20493	0.14029
2584.27637	0.14056
2582.34780	0.14090
2580.41924	0.14133
2578.49067	0.14180
2576.56211	0.14223
2574.63354	0.14257
2572.70498	0.14287
2570.77642	0.14325
2568.84785	0.14367
2566.91929	0.14403
2564.99072	0.14453
2563.06216	0.14527
2561.13359	0.14591
2559.20503	0.14638
2557.27646	0.14694
2555.34790	0.14762
2553.41934	0.14822
2551.49077	0.14884
2549.56221	0.14956
2547.63364	0.15013
2545.70508	0.15056
2543.77651	0.15116
2541.84795	0.15192
2539.91938	0.15261
2537.99082	0.15327
2536.06226	0.15408
2534.13369	0.15493
2532.20513	0.15570
2530.27656	0.15642
2528.34800	0.15724
2526.41943	0.15816
2524.49087	0.15896
2522.56230	0.15966
2520.63374	0.16040
2518.70518	0.16120
2516.77661	0.16204
2514.84805	0.16290
2512.91948	0.16379
2510.99092	0.16476
2509.06235	0.16573
2507.13379	0.16658
2505.20522	0.16732
2503.27666	0.16810
2501.34810	0.16907
2499.41953	0.17014
2497.49097	0.17113
2495.56240	0.17193
2493.63384	0.17272
2491.70527	0.17372
2489.77671	0.17479
2487.84814	0.17582
2485.91958	0.17681
2483.99102	0.17777
2482.06245	0.17880
2480.13389	0.17988
2478.20532	0.18078
2476.27676	0.18151
2474.34819	0.18225
2472.41963	0.18310
2470.49106	0.18410
2468.56250	0.18520
2466.63394	0.18627
2464.70537	0.18731
2462.77681	0.18843
2460.84824	0.18956
2458.91968	0.19056
2456.99111	0.19149
2455.06255	0.19250
2453.13398	0.19364
2451.20542	0.19476
2449.27686	0.19571
2447.34829	0.19664
2445.41973	0.19771
2443.49116	0.19895
2441.56260	0.20010
2439.63403	0.20097
2437.70547	0.20177
2435.77690	0.20283
2433.84834	0.20411
2431.91978	0.20541
2429.99121	0.20648
2428.06265	0.20745
2426.13408	0.20864
2424.20552	0.20994
2422.27695	0.21114
2420.34839	0.21225
2418.41982	0.21333
2416.49126	0.21444
2414.56270	0.21562
2412.63413	0.21681
2410.70557	0.21795
2408.77700	0.21915
2406.84844	0.22041
2404.91987	0.22172
2402.99131	0.22304
2401.06274	0.22426
2399.13418	0.22540
2397.20562	0.22660
2395.27705	0.22785
2393.34849	0.22912
2391.41992	0.23050
2389.49136	0.23221
2387.56279	0.23456
2385.63423	0.23804
2383.70566	0.24315
2381.77710	0.25011
2379.84854	0.25883
2377.91997	0.26904
2375.99141	0.28058
2374.06284	0.29376
2372.13428	0.30867
2370.20571	0.32479
2368.27715	0.34171
2366.34858	0.35906
2364.42002	0.37484
2362.49146	0.38636
2360.56289	0.39268
2358.63433	0.39370
2356.70576	0.38850
2354.77720	0.37645
2352.84863	0.35986
2350.92007	0.34310
2348.99150	0.33273
2347.06294	0.33307
2345.13437	0.34476
2343.20581	0.36067
2341.27725	0.36923
2339.34868	0.37009
2337.42012	0.36846
2335.49155	0.36686
2333.56299	0.36513
2331.63442	0.36364
2329.70586	0.36267
2327.77729	0.36105
2325.84873	0.35785
2323.92017	0.35388
2321.99160	0.34996
2320.06304	0.34544
2318.13447	0.34008
2316.20591	0.33530
2314.27734	0.33240
2312.34878	0.33117
2310.42021	0.33029
2308.49165	0.32852
2306.56309	0.32587
2304.63452	0.32347
2302.70596	0.32236
2300.77739	0.32226
2298.84883	0.32225
2296.92026	0.32216
2294.99170	0.32224
2293.06313	0.32256
2291.13457	0.32295
2289.20601	0.32326
2287.27744	0.32352
2285.34888	0.32393
2283.42031	0.32492
2281.49175	0.32678
2279.56318	0.32933
2277.63462	0.33200
2275.70605	0.33448
2273.77749	0.33676
2271.84893	0.33890
2269.92036	0.34096
2267.99180	0.34303
2266.06323	0.34512
2264.13467	0.34716
2262.20610	0.34913
2260.27754	0.35103
2258.34897	0.35286
2256.42041	0.35460
2254.49185	0.35635
2252.56328	0.35825
2250.63472	0.36029
2248.70615	0.36235
2246.77759	0.36439
2244.84902	0.36647
2242.92046	0.36851
2240.99189	0.37054
2239.06333	0.37270
2237.13477	0.37497
2235.20620	0.37723
2233.27764	0.37945
2231.34907	0.38165
2229.42051	0.38375
2227.49194	0.38587
2225.56338	0.38812
2223.63481	0.39035
2221.70625	0.39255
2219.77769	0.39479
2217.84912	0.39712
2215.92056	0.39946
2213.99199	0.40170
2212.06343	0.40385
2210.13486	0.40596
2208.20630	0.40802
2206.27773	0.41007
2204.34917	0.41215
2202.42061	0.41427
2200.49204	0.41633
2198.56348	0.41829
2196.63491	0.42023
2194.70635	0.42228
2192.77778	0.42440
2190.84922	0.42648
2188.92065	0.42842
2186.99209	0.43022
2185.06353	0.43199
2183.13496	0.43363
2181.20640	0.43516
2179.27783	0.43677
2177.34927	0.43849
2175.42070	0.44012
2173.49214	0.44160
2171.56357	0.44309
2169.63501	0.44470
2167.70645	0.44624
2165.77788	0.44751
2163.84932	0.44867
2161.92075	0.44986
2159.99219	0.45095
2158.06362	0.45190
2156.13506	0.45279
2154.20649	0.45357
2152.27793	0.45427
2150.34937	0.45494
2148.42080	0.45552
2146.49224	0.45595
2144.56367	0.45638
2142.63511	0.45682
2140.70654	0.45711
2138.77798	0.45723
2136.84941	0.45732
2134.92085	0.45738
2132.99229	0.45737
2131.06372	0.45726
2129.13516	0.45709
2127.20659	0.45694
2125.27803	0.45675
2123.34946	0.45634
2121.42090	0.45580
2119.49233	0.45512
2117.56377	0.45423
2115.63521	0.45335
2113.70664	0.45256
2111.77808	0.45162
2109.84951	0.45053
2107.92095	0.44942
2105.99238	0.44825
2104.06382	0.44695
2102.13525	0.44554
2100.20669	0.44416
2098.27812	0.44272
2096.34956	0.44118
2094.42100	0.43966
2092.49243	0.43814
2090.56387	0.43642
2088.63530	0.43450
2086.70674	0.43255
2084.77817	0.43054
2082.84961	0.42848
2080.92104	0.42640
2078.99248	0.42432
2077.06392	0.42225
2075.13535	0.42009
2073.20679	0.41786
2071.27822	0.41558
2069.34966	0.41329
2067.42109	0.41104
2065.49253	0.40878
2063.56396	0.40636
2061.63540	0.40374
2059.70684	0.40107
2057.77827	0.39856
2055.84971	0.39610
2053.92114	0.39346
2051.99258	0.39070
2050.06401	0.38793
2048.13545	0.38524
2046.20688	0.38258
2044.27832	0.37996
2042.34976	0.37732
2040.42119	0.37456
2038.49263	0.37169
2036.56406	0.36879
2034.63550	0.36599
2032.70693	0.36325
2030.77837	0.36049
2028.84980	0.35773
2026.92124	0.35488
2024.99268	0.35191
2023.06411	0.34903
2021.13555	0.34631
2019.20698	0.34368
2017.27842	0.34104
2015.34985	0.33822
2013.42129	0.33528
2011.49272	0.33244
2009.56416	0.32970
2007.63560	0.32691
2005.70703	0.32415
2003.77847	0.32155
2001.84990	0.31894
1999.92134	0.31618
1997.99277	0.31342
1996.06421	0.31087
1994.13564	0.30857
1992.20708	0.30627
1990.27852	0.30376
1988.34995	0.30117
1986.42139	0.29859
1984.49282	0.29603
1982.56426	0.29360
1980.63569	0.29129
1978.70713	0.28905
1976.77856	0.28680
1974.85000	0.28458
1972.92144	0.28246
1970.99287	0.28046
1969.06431	0.27852
1967.13574	0.27657
1965.20718	0.27449
1963.27861	0.27240
1961.35005	0.27046
1959.42148	0.26853
1957.49292	0.26664
1955.56436	0.26487
1953.63579	0.26311
1951.70723	0.26135
1949.77866	0.25969
1947.85010	0.25818
1945.92153	0.25684
1943.99297	0.25569
1942.06440	0.25442
1940.13584	0.25275
1938.20728	0.25098
1936.27871	0.24946
1934.35015	0.24812
1932.42158	0.24688
1930.49302	0.24568
1928.56445	0.24458
1926.63589	0.24365
1924.70732	0.24298
1922.77876	0.24235
1920.85020	0.24142
1918.92163	0.24036
1916.99307	0.23936
1915.06450	0.23832
1913.13594	0.23740
1911.20737	0.23682
1909.27881	0.23629
1907.35024	0.23552
1905.42168	0.23465
1903.49312	0.23396
1901.56455	0.23345
1899.63599	0.23294
1897.70742	0.23251
1895.77886	0.23223
1893.85029	0.23199
1891.92173	0.23173
1889.99316	0.23164
1888.06460	0.23139
1886.13604	0.23089
1884.20747	0.23055
1882.27891	0.23039
1880.35034	0.23028
1878.42178	0.23019
1876.49321	0.23014
1874.56465	0.23009
1872.63608	0.23027
1870.70752	0.23093
1868.77896	0.23199
1866.85039	0.23238
1864.92183	0.23194
1862.99326	0.23167
1861.06470	0.23185
1859.13613	0.23223
1857.20757	0.23256
1855.27900	0.23293
1853.35044	0.23335
1851.42187	0.23391
1849.49331	0.23468
1847.56475	0.23568
1845.63618	0.23687
1843.70762	0.23799
1841.77905	0.23850
1839.85049	0.23873
1837.92192	0.23945
1835.99336	0.24041
1834.06479	0.24139
1832.13623	0.24259
1830.20767	0.24434
1828.27910	0.24598
1826.35054	0.24699
1824.42197	0.24802
1822.49341	0.24898
1820.56484	0.25007
1818.63628	0.25149
1816.70771	0.25312
1814.77915	0.25470
1812.85059	0.25654
1810.92202	0.25881
1808.99346	0.26101
1807.06489	0.26292
1805.13633	0.26482
1803.20776	0.26720
1801.27920	0.27002
1799.35063	0.27299
1797.42207	0.27556
1795.49351	0.27806
1793.56494	0.28110
1791.63638	0.28480
1789.70781	0.28793
1787.77925	0.29027
1785.85068	0.29344
1783.92212	0.29736
1781.99355	0.30148
1780.06499	0.30570
1778.13643	0.30997
1776.20786	0.31420
1774.27930	0.31907
1772.35073	0.32546
1770.42217	0.33181
1768.49360	0.33679
1766.56504	0.34153
1764.63647	0.34664
1762.70791	0.35272
1760.77935	0.36045
1758.85078	0.36767
1756.92222	0.37489
1754.99365	0.38266
1753.06509	0.38996
1751.13652	0.39892
1749.20796	0.40993
1747.27939	0.42039
1745.35083	0.42954
1743.42227	0.43926
1741.49370	0.45005
1739.56514	0.46264
1737.63657	0.47521
1735.70801	0.48663
1733.77944	0.50350
1731.85088	0.52291
1729.92231	0.53831
1727.99375	0.55404
1726.06519	0.57116
1724.13662	0.59002
1722.20806	0.61034
1720.27949	0.62944
1718.35093	0.65190
1716.42236	0.68364
1714.49380	0.71331
1712.56523	0.73781
1710.63667	0.76186
1708.70811	0.78781
1706.77954	0.81713
1704.85098	0.85129
1702.92241	0.88181
1700.99385	0.91273
1699.06528	0.95752
1697.13672	0.99758
1695.20815	1.03768
1693.27959	1.07697
1691.35103	1.10918
1689.42246	1.14582
1687.49390	1.18387
1685.56533	1.22085
1683.63677	1.27592
1681.70820	1.33162
1679.77964	1.36786
1677.85107	1.40239
1675.92251	1.44213
1673.99395	1.49060
1672.06538	1.53352
1670.13682	1.57519
1668.20825	1.62746
1666.27969	1.66952
1664.35112	1.70452
1662.42256	1.74672
1660.49399	1.79366
1658.56543	1.83132
1656.63687	1.86266
1654.70830	1.89255
1652.77974	1.94065
1650.85117	1.98944
1648.92261	2.01151
1646.99404	2.03851
1645.06548	2.06941
1643.13691	2.09053
1641.20835	2.10440
1639.27979	2.11691
1637.35122	2.12506
1635.42266	2.12701
1633.49409	2.12285
1631.56553	2.11277
1629.63696	2.09950
1627.70840	2.07763
1625.77983	2.05100
1623.85127	2.01706
1621.92271	1.97543
1619.99414	1.93694
1618.06558	1.89814
1616.13701	1.84402
1614.20845	1.78802
1612.27988	1.74309
1610.35132	1.69577
1608.42275	1.64534
1606.49419	1.59539
1604.56562	1.54789
1602.63706	1.50183
1600.70850	1.45703
1598.77993	1.41492
1596.85137	1.37464
1594.92280	1.33587
1592.99424	1.29888
1591.06567	1.26493
1589.13711	1.23276
1587.20854	1.20197
1585.27998	1.17271
1583.35142	1.14503
1581.42285	1.11962
1579.49429	1.09765
1577.56572	1.07737
1575.63716	1.05192
1573.70859	1.02844
1571.78003	1.01239
1569.85146	0.99526
1567.92290	0.97540
1565.99434	0.95887
1564.06577	0.94461
1562.13721	0.93277
1560.20864	0.92292
1558.28008	0.90569
1556.35151	0.88810
1554.42295	0.87678
1552.49438	0.86606
1550.56582	0.85555
1548.63726	0.84501
1546.70869	0.83588
1544.78013	0.82811
1542.85156	0.82084
1540.92300	0.81289
1538.99443	0.80067
1537.06587	0.79056
1535.13730	0.78440
1533.20874	0.77764
1531.28018	0.76977
1529.35161	0.76339
1527.42305	0.75776
1525.49448	0.75218
1523.56592	0.74700
1521.63735	0.74150
1519.70879	0.73524
1517.78022	0.72953
1515.85166	0.72362
1513.92310	0.71802
1511.99453	0.71381
1510.06597	0.71054
1508.13740	0.70784
1506.20884	0.70280
1504.28027	0.69626
1502.35171	0.69189
1500.42314	0.68876
1498.49458	0.68609
1496.56602	0.68267
1494.63745	0.67845
1492.70889	0.67520
1490.78032	0.67316
1488.85176	0.67066
1486.92319	0.66678
1484.99463	0.66286
1483.06606	0.65972
1481.13750	0.65697
1479.20894	0.65425
1477.28037	0.65188
1475.35181	0.64983
1473.42324	0.64765
1471.49468	0.64445
1469.56611	0.64090
1467.63755	0.63806
1465.70898	0.63574
1463.78042	0.63332
1461.85186	0.63101
1459.92329	0.62948
1457.99473	0.62827
1456.06616	0.62564
1454.13760	0.62223
1452.20903	0.61977
1450.28047	0.61797
1448.35190	0.61642
1446.42334	0.61464
1444.49478	0.61272
1442.56621	0.61102
1440.63765	0.60961
1438.70908	0.60852
1436.78052	0.60754
1434.85195	0.60606
1432.92339	0.60423
1430.99482	0.60254
1429.06626	0.60088
1427.13770	0.59928
1425.20913	0.59793
1423.28057	0.59662
1421.35200	0.59542
1419.42344	0.59453
1417.49487	0.59319
1415.56631	0.59110
1413.63774	0.58918
1411.70918	0.58752
1409.78062	0.58597
1407.85205	0.58467
1405.92349	0.58356
1403.99492	0.58224
1402.06636	0.58082
1400.13779	0.57977
1398.20923	0.57900
1396.28066	0.57809
1394.35210	0.57656
1392.42354	0.57454
1390.49497	0.57286
1388.56641	0.57177
1386.63784	0.57071
1384.70928	0.56919
1382.78071	0.56769
1380.85215	0.56658
1378.92358	0.56571
1376.99502	0.56486
1375.06646	0.56412
1373.13789	0.56314
1371.20933	0.56178
1369.28076	0.56052
1367.35220	0.55944
1365.42363	0.55853
1363.49507	0.55791
1361.56650	0.55711
1359.63794	0.55588
1357.70937	0.55470
1355.78081	0.55382
1353.85225	0.55314
1351.92368	0.55238
1349.99512	0.55147
1348.06655	0.55045
1346.13799	0.54941
1344.20942	0.54850
1342.28086	0.54785
1340.35229	0.54736
1338.42373	0.54658
1336.49517	0.54538
1334.56660	0.54421
1332.63804	0.54327
1330.70947	0.54239
1328.78091	0.54150
1326.85234	0.54069
1324.92378	0.53994
1322.99521	0.53913
1321.06665	0.53825
1319.13809	0.53741
1317.20952	0.53657
1315.28096	0.53573
1313.35239	0.53488
1311.42383	0.53406
1309.49526	0.53339
1307.56670	0.53288
1305.63813	0.53228
1303.70957	0.53148
1301.78101	0.53066
1299.85244	0.52988
1297.92388	0.52906
1295.99531	0.52822
1294.06675	0.52747
1292.13818	0.52678
1290.20962	0.52618
1288.28105	0.52575
1286.35249	0.52530
1284.42393	0.52480
1282.49536	0.52439
1280.56680	0.52405
1278.63823	0.52365
1276.70967	0.52324
1274.78110	0.52278
1272.85254	0.52224
1270.92397	0.52171
1268.99541	0.52115
1267.06685	0.52058
1265.13828	0.52007
1263.20972	0.51972
1261.28115	0.51941
1259.35259	0.51903
1257.42402	0.51870
1255.49546	0.51847
1253.56689	0.51826
1251.63833	0.51805
1249.70977	0.51787
1247.78120	0.51764
1245.85264	0.51735
1243.92407	0.51705
1241.99551	0.51669
1240.06694	0.51608
1238.13838	0.51536
1236.20981	0.51481
1234.28125	0.51434
1232.35269	0.51383
1230.42412	0.51327
1228.49556	0.51254
1226.56699	0.51169
1224.63843	0.51098
1222.70986	0.51048
1220.78130	0.51005
1218.85273	0.50955
1216.92417	0.50897
1214.99561	0.50831
1213.06704	0.50758
1211.13848	0.50686
1209.20991	0.50614
1207.28135	0.50552
1205.35278	0.50504
1203.42422	0.50446
1201.49565	0.50382
1199.56709	0.50342
1197.63853	0.50318
1195.70996	0.50282
1193.78140	0.50231
1191.85283	0.50175
1189.92427	0.50124
1187.99570	0.50088
1186.06714	0.50067
1184.13857	0.50047
1182.21001	0.50036
1180.28145	0.50047
1178.35288	0.50067
1176.42432	0.50085
1174.49575	0.50112
1172.56719	0.50152
1170.63862	0.50199
1168.71006	0.50243
1166.78149	0.50278
1164.85293	0.50302
1162.92437	0.50316
1160.99580	0.50317
1159.06724	0.50287
1157.13867	0.50221
1155.21011	0.50142
1153.28154	0.50046
1151.35298	0.49900
1149.42441	0.49716
1147.49585	0.49526
1145.56729	0.49330
1143.63872	0.49116
1141.71016	0.48881
1139.78159	0.48630
1137.85303	0.48390
1135.92446	0.48173
1133.99590	0.47983
1132.06733	0.47819
1130.13877	0.47659
1128.21021	0.47500
1126.28164	0.47361
1124.35308	0.47228
1122.42451	0.47092
1120.49595	0.46986
1118.56738	0.46942
1116.63882	0.46946
1114.71025	0.46960
1112.78169	0.46968
1110.85312	0.46968
1108.92456	0.46998
1106.99600	0.47089
1105.06743	0.47219
1103.13887	0.47381
1101.21030	0.47574
1099.28174	0.47783
1097.35317	0.48028
1095.42461	0.48334
1093.49604	0.48696
1091.56748	0.49100
1089.63892	0.49553
1087.71035	0.50065
1085.78179	0.50635
1083.85322	0.51271
1081.92466	0.51946
1079.99609	0.52555
1078.06753	0.52969
1076.13896	0.53123
1074.21040	0.52993
1072.28184	0.52591
1070.35327	0.51999
1068.42471	0.51329
1066.49614	0.50664
1064.56758	0.50044
1062.63901	0.49480
1060.71045	0.48976
1058.78188	0.48539
1056.85332	0.48157
1054.92476	0.47820
1052.99619	0.47531
1051.06763	0.47280
1049.13906	0.47071
1047.21050	0.46919
1045.28193	0.46800
1043.35337	0.46685
1041.42480	0.46573
1039.49624	0.46474
1037.56768	0.46410
1035.63911	0.46389
1033.71055	0.46392
1031.78198	0.46400
1029.85342	0.46417
1027.92485	0.46459
1025.99629	0.46517
1024.06772	0.46571
1022.13916	0.46621
1020.21060	0.46693
1018.28203	0.46799
1016.35347	0.46914
1014.42490	0.47026
1012.49634	0.47163
1010.56777	0.47316
1008.63921	0.47465
1006.71064	0.47628
1004.78208	0.47827
1002.85352	0.48073
1000.92495	0.48367
998.99639	0.48694
997.06782	0.49041
995.13926	0.49416
993.21069	0.49804
991.28213	0.50138
989.35356	0.50374
987.42500	0.50537
985.49644	0.50659
983.56787	0.50764
981.63931	0.50877
979.71074	0.51031
977.78218	0.51257
975.85361	0.51538
973.92505	0.51832
971.99648	0.52130
970.06792	0.52462
968.13936	0.52852
966.21079	0.53290
964.28223	0.53764
962.35366	0.54272
960.42510	0.54801
958.49653	0.55349
956.56797	0.55930
954.63940	0.56543
952.71084	0.57172
950.78228	0.57799
948.85371	0.58413
946.92515	0.59032
944.99658	0.59663
943.06802	0.60269
941.13945	0.60829
939.21089	0.61380
937.28232	0.61957
935.35376	0.62565
933.42520	0.63176
931.49663	0.63766
929.56807	0.64341
927.63950	0.64898
925.71094	0.65460
923.78237	0.66076
921.85381	0.66724
919.92524	0.67362
917.99668	0.68043
916.06812	0.68784
914.13955	0.69530
912.21099	0.70312
910.28242	0.71157
908.35386	0.72041
906.42529	0.72912
904.49673	0.73716
902.56816	0.74530
900.63960	0.75455
898.71104	0.76450
896.78247	0.77441
894.85391	0.78422
892.92534	0.79425
890.99678	0.80510
889.06821	0.81633
887.13965	0.82633
885.21108	0.83581
883.28252	0.84699
881.35396	0.85917
879.42539	0.87178
877.49683	0.88539
875.56826	0.89859
873.63970	0.91032
871.71113	0.92025
869.78257	0.92868
867.85400	0.93745
865.92544	0.94784
863.99687	0.96013
862.06831	0.97316
860.13975	0.98475
858.21118	0.99521
856.28262	1.00675
854.35405	1.01987
852.42549	1.03308
850.49692	1.04498
848.56836	1.05578
846.63979	1.06656
844.71123	1.07800
842.78267	1.09079
840.85410	1.10302
838.92554	1.11180
836.99697	1.11981
835.06841	1.12828
833.13984	1.13538
831.21128	1.14185
829.28271	1.14751
827.35415	1.15324
825.42559	1.16354
823.49702	1.18041
821.56846	1.19862
819.63989	1.21165
817.71133	1.22120
815.78276	1.22981
813.85420	1.23129
811.92563	1.23222
809.99707	1.24859
808.06851	1.26962
806.13994	1.27497
804.21138	1.27073
802.28281	1.26557
800.35425	1.25797
798.42568	1.26519
796.49712	1.28220
794.56855	1.26325
792.63999	1.22629
790.71143	1.21522
788.78286	1.22964
786.85430	1.25191
784.92573	1.25253
782.99717	1.23306
781.06860	1.22841
779.14004	1.22521
777.21147	1.19558
775.28291	1.15535
773.35435	1.13503
771.42578	1.14674
769.49722	1.15878
767.56865	1.14121
765.64009	1.12484
763.71152	1.13800
761.78296	1.14855
759.85439	1.13274
757.92583	1.10631
755.99727	1.07667
754.06870	1.05410
752.14014	1.02030
750.21157	0.97550
748.28301	0.94850
746.35444	0.93207
744.42588	0.90261
742.49731	0.84855
740.56875	0.77768
738.64019	0.70124
736.71162	0.60838
734.78306	0.52451
732.85449	0.48145
730.92593	0.46490
728.99736	0.47312
727.06880	0.48033
725.14023	0.43096
723.21167	0.37834
721.28311	0.35450
719.35454	0.32947
717.42598	0.25334
715.49741	0.13642
713.56885	-0.00101
711.64028	-0.22547
709.71172	-0.43162
707.78315	-0.26248
705.85459	-0.04390
703.92603	0.08966
701.99746	0.09567
700.06890	0.03456
698.14033	0.02641
696.21177	0.07769
694.28320	0.04382
692.35464	0.00129
690.42607	0.02989
688.49751	0.08719
686.56895	0.11178
684.64038	0.12076
682.71182	0.11663
680.78325	0.07032
678.85469	0.01781
676.92612	0.02081
674.99756	0.03629
673.06899	0.05350
671.14043	0.07415
669.21187	0.04899
667.28330	0.01329
665.35474	0.03692
663.42617	0.08528
661.49761	0.04401
659.56904	-0.03711
657.64048	-0.06995
655.71191	-0.05480
653.78335	-0.01716
651.85479	0.00472
649.92622	-0.02007
647.99766	-0.06040
646.06909	-0.08256
644.14053	-0.06057
642.21196	-0.00456
640.28340	0.06981
638.35483	0.11486
636.42627	0.08349
634.49771	0.01190
632.56914	0.00747
630.64058	0.07779
628.71201	0.17160
626.78345	0.20450
624.85488	0.15555
622.92632	0.10545
620.99775	0.09436
619.06919	0.08673
617.14062	0.04871
615.21206	0.02297
613.28350	0.02629
611.35493	0.04713
609.42637	0.09140
607.49780	0.10316
605.56924	0.05426
603.64067	0.04711
601.71211	0.07114
599.78354	0.04245
597.85498	0.03110
595.92642	0.06459
593.99785	0.05064
592.06929	0.00793
590.14072	0.02647
588.21216	0.08401
586.28359	0.14363
584.35503	0.17498
582.42646	0.12457
580.49790	0.04144
578.56934	0.02074
576.64077	0.06806
574.71221	0.11135
572.78364	0.12744
570.85508	0.11486
568.92651	0.05840
566.99795	0.04908
565.06938	0.11232
563.14082	0.16101
561.21226	0.14893
559.28369	0.10532
557.35513	0.05518
555.42656	0.01899
553.49800	0.03627
551.56943	0.08717
549.64087	0.12212
547.71230	0.12062
545.78374	0.09061
543.85518	0.03514
541.92661	-0.01364
539.99805	-0.00533
538.06948	0.03973
536.14092	0.05563
534.21235	0.02845
532.28379	0.00448
530.35522	0.00983
528.42666	0.03235
526.49810	0.05396
524.56953	0.09263
522.64097	0.15646
520.71240	0.15831
518.78384	0.08861
516.85527	0.04537
514.92671	0.08984
512.99814	0.17088
511.06958	0.20833
509.14102	0.17928
507.21245	0.14038
505.28389	0.14451
503.35532	0.14887
501.42676	0.11812
499.49819	0.07748
