3997.91411	0.06891
3995.98555	0.06880
3994.05698	0.06885
3992.12842	0.06919
3990.19985	0.06951
3988.27129	0.06999
3986.34272	0.07050
3984.41416	0.07070
3982.48560	0.07083
3980.55703	0.07098
3978.62847	0.07075
3976.69990	0.07067
3974.77134	0.07142
3972.84277	0.07204
3970.91421	0.07176
3968.98564	0.07137
3967.05708	0.07152
3965.12852	0.07185
3963.19995	0.07217
3961.27139	0.07252
3959.34282	0.07269
3957.41426	0.07253
3955.48569	0.07233
3953.55713	0.07223
3951.62856	0.07234
3949.70000	0.07282
3947.77144	0.07354
3945.84287	0.07397
3943.91431	0.07384
3941.98574	0.07344
3940.05718	0.07294
3938.12861	0.07275
3936.20005	0.07311
3934.27148	0.07343
3932.34292	0.07326
3930.41436	0.07299
3928.48579	0.07309
3926.55723	0.07326
3924.62866	0.07323
3922.70010	0.07280
3920.77153	0.07236
3918.84297	0.07252
3916.91440	0.07273
3914.98584	0.07228
3913.05728	0.07156
3911.12871	0.07113
3909.20015	0.07118
3907.27158	0.07187
3905.34302	0.07303
3903.41445	0.07429
3901.48589	0.07511
3899.55732	0.07485
3897.62876	0.07370
3895.70020	0.07281
3893.77163	0.07294
3891.84307	0.07393
3889.91450	0.07456
3887.98594	0.07430
3886.05737	0.07444
3884.12881	0.07504
3882.20024	0.07508
3880.27168	0.07464
3878.34312	0.07398
3876.41455	0.07357
3874.48599	0.07406
3872.55742	0.07519
3870.62886	0.07616
3868.70029	0.07649
3866.77173	0.07613
3864.84316	0.07624
3862.91460	0.07689
3860.98604	0.07671
3859.05747	0.07631
3857.12891	0.07693
3855.20034	0.07856
3853.27178	0.08110
3851.34321	0.08252
3849.41465	0.08098
3847.48608	0.07949
3845.55752	0.07975
3843.62896	0.08149
3841.70039	0.08330
3839.77183	0.08459
3837.84326	0.08575
3835.91470	0.08607
3833.98613	0.08576
3832.05757	0.08565
3830.12900	0.08529
3828.20044	0.08498
3826.27187	0.08555
3824.34331	0.08668
3822.41475	0.08869
3820.48618	0.09178
3818.55762	0.09296
3816.62905	0.09243
3814.70049	0.09224
3812.77192	0.09192
3810.84336	0.09171
3808.91479	0.09236
3806.98623	0.09419
3805.05767	0.09627
3803.12910	0.09793
3801.20054	0.10041
3799.27197	0.10224
3797.34341	0.10219
3795.41484	0.10231
3793.48628	0.10280
3791.55771	0.10333
3789.62915	0.10402
3787.70059	0.10502
3785.77202	0.10673
3783.84346	0.10874
3781.91489	0.11059
3779.98633	0.11237
3778.05776	0.11346
3776.12920	0.11383
3774.20063	0.11495
3772.27207	0.11699
3770.34351	0.11938
3768.41494	0.12194
3766.48638	0.12425
3764.55781	0.12642
3762.62925	0.12826
3760.70068	0.13026
3758.77212	0.13349
3756.84355	0.13664
3754.91499	0.13832
3752.98643	0.14015
3751.05786	0.14392
3749.12930	0.14872
3747.20073	0.15151
3745.27217	0.15346
3743.34360	0.15684
3741.41504	0.16032
3739.48647	0.16294
3737.55791	0.16625
3735.62935	0.17139
3733.70078	0.17756
3731.77222	0.18214
3729.84365	0.18510
3727.91509	0.18836
3725.98652	0.19386
3724.05796	0.20135
3722.12939	0.20866
3720.20083	0.21514
3718.27227	0.22132
3716.34370	0.22808
3714.41514	0.23567
3712.48657	0.24497
3710.55801	0.25765
3708.62944	0.27166
3706.70088	0.28348
3704.77231	0.29435
3702.84375	0.30697
3700.91519	0.32348
3698.98662	0.34178
3697.05806	0.35926
3695.12949	0.37774
3693.20093	0.39776
3691.27236	0.41968
3689.34380	0.44713
3687.41523	0.48036
3685.48667	0.51032
3683.55811	0.53641
3681.62954	0.56408
3679.70098	0.59510
3677.77241	0.62833
3675.84385	0.66842
3673.91528	0.72113
3671.98672	0.76425
3670.05815	0.80270
3668.12959	0.85369
3666.20103	0.90046
3664.27246	0.94069
3662.34390	0.98419
3660.41533	1.03085
3658.48677	1.07680
3656.55820	1.12601
3654.62964	1.18042
3652.70107	1.22591
3650.77251	1.26578
3648.84395	1.32059
3646.91538	1.38789
3644.98682	1.43815
3643.05825	1.47623
3641.12969	1.51518
3639.20112	1.55900
3637.27256	1.60325
3635.34399	1.64551
3633.41543	1.68769
3631.48687	1.72811
3629.55830	1.76898
3627.62974	1.82018
3625.70117	1.86820
3623.77261	1.90262
3621.84404	1.93643
3619.91548	1.97486
3617.98691	2.02030
3616.05835	2.06361
3614.12979	2.09957
3612.20122	2.13705
3610.27266	2.17543
3608.34409	2.21508
3606.41553	2.25730
3604.48696	2.29606
3602.55840	2.33088
3600.62983	2.36891
3598.70127	2.41019
3596.77271	2.44943
3594.84414	2.48759
3592.91558	2.52717
3590.98701	2.56620
3589.05845	2.60398
3587.12988	2.64792
3585.20132	2.69475
3583.27275	2.73569
3581.34419	2.77444
3579.41562	2.81452
3577.48706	2.85667
3575.55850	2.90061
3573.62993	2.94439
3571.70137	2.98470
3569.77280	3.02369
3567.84424	3.06699
3565.91567	3.11888
3563.98711	3.16945
3562.05854	3.21225
3560.12998	3.25267
3558.20142	3.29449
3556.27285	3.33992
3554.34429	3.38614
3552.41572	3.43288
3550.48716	3.48068
3548.55859	3.52690
3546.63003	3.57061
3544.70146	3.61584
3542.77290	3.66448
3540.84434	3.71327
3538.91577	3.75925
3536.98721	3.80155
3535.05864	3.84582
3533.13008	3.89389
3531.20151	3.94162
3529.27295	3.98858
3527.34438	4.03851
3525.41582	4.08803
3523.48726	4.13286
3521.55869	4.17971
3519.63013	4.23113
3517.70156	4.28102
3515.77300	4.32601
3513.84443	4.36888
3511.91587	4.41439
3509.98730	4.46672
3508.05874	4.52186
3506.13018	4.57159
3504.20161	4.61661
3502.27305	4.66419
3500.34448	4.71424
3498.41592	4.75964
3496.48735	4.80472
3494.55879	4.85736
3492.63022	4.91448
3490.70166	4.96563
3488.77310	5.00851
3486.84453	5.05219
3484.91597	5.10257
3482.98740	5.15537
3481.05884	5.20219
3479.13027	5.24353
3477.20171	5.29151
3475.27314	5.34790
3473.34458	5.39883
3471.41602	5.43956
3469.48745	5.48386
3467.55889	5.54085
3465.63032	5.60349
3463.70176	5.65820
3461.77319	5.69830
3459.84463	5.73709
3457.91606	5.78059
3455.98750	5.82513
3454.05894	5.87837
3452.13037	5.94458
3450.20181	6.01286
3448.27324	6.06529
3446.34468	6.10459
3444.41611	6.14234
3442.48755	6.18848
3440.55898	6.24584
3438.63042	6.30088
3436.70186	6.34705
3434.77329	6.39489
3432.84473	6.45210
3430.91616	6.50881
3428.98760	6.55052
3427.05903	6.58447
3425.13047	6.63425
3423.20190	6.69158
3421.27334	6.75443
3419.34478	6.81017
3417.41621	6.82809
3415.48765	6.84809
3413.55908	6.90369
3411.63052	6.97559
3409.70195	7.04316
3407.77339	7.09422
3405.84482	7.11384
3403.91626	7.12805
3401.98770	7.13895
3400.05913	7.14851
3398.13057	7.21660
3396.20200	7.31876
3394.27344	7.39346
3392.34487	7.43527
3390.41631	7.45268
3388.48774	7.47271
3386.55918	7.53413
3384.63062	7.62744
3382.70205	7.67901
3380.77349	7.65322
3378.84492	7.61520
3376.91636	7.62239
3374.98779	7.68538
3373.05923	7.79476
3371.13066	7.87860
3369.20210	7.86843
3367.27354	7.77019
3365.34497	7.68818
3363.41641	7.68276
3361.48784	7.69890
3359.55928	7.73353
3357.63071	7.81018
3355.70215	7.87256
3353.77358	7.88721
3351.84502	7.90407
3349.91646	7.92367
3347.98789	7.94222
3346.05933	7.96356
3344.13076	7.95080
3342.20220	7.92164
3340.27363	7.94979
3338.34507	8.01969
3336.41650	8.04803
3334.48794	8.07610
3332.55937	8.09905
3330.63081	8.07778
3328.70225	8.09787
3326.77368	8.20313
3324.84512	8.28867
3322.91655	8.29831
3320.98799	8.32136
3319.05942	8.30168
3317.13086	8.19303
3315.20229	8.11418
3313.27373	8.10085
3311.34517	8.08806
3309.41660	8.09473
3307.48804	8.14657
3305.55947	8.19934
3303.63091	8.22380
3301.70234	8.18933
3299.77378	8.14158
3297.84521	8.13705
3295.91665	8.14754
3293.98809	8.12636
3292.05952	8.09489
3290.13096	8.07514
3288.20239	8.12572
3286.27383	8.27591
3284.34526	8.32217
3282.41670	8.18518
3280.48813	8.07240
3278.55957	8.07897
3276.63101	8.10730
3274.70244	8.10356
3272.77388	8.08853
3270.84531	8.04154
3268.91675	8.04971
3266.98818	8.13421
3265.05962	8.16421
3263.13105	8.15330
3261.20249	8.17424
3259.27393	8.19759
3257.34536	8.24232
3255.41680	8.27980
3253.48823	8.26056
3251.55967	8.24002
3249.63110	8.25672
3247.70254	8.28564
3245.77397	8.27758
3243.84541	8.28186
3241.91685	8.31037
3239.98828	8.30188
3238.05972	8.31547
3236.13115	8.38940
3234.20259	8.39122
3232.27402	8.28864
3230.34546	8.23408
3228.41689	8.28318
3226.48833	8.31469
3224.55977	8.20196
3222.63120	8.08900
3220.70264	8.08748
3218.77407	8.08805
3216.84551	8.01969
3214.91694	7.96129
3212.98838	7.91412
3211.05981	7.82125
3209.13125	7.76836
3207.20269	7.79476
3205.27412	7.84171
3203.34556	7.87969
3201.41699	7.89891
3199.48843	7.91355
3197.55986	7.91686
3195.63130	7.87545
3193.70273	7.79567
3191.77417	7.72938
3189.84561	7.68895
3187.91704	7.64996
3185.98848	7.60670
3184.05991	7.54739
3182.13135	7.47853
3180.20278	7.39887
3178.27422	7.31654
3176.34565	7.27172
3174.41709	7.25334
3172.48853	7.23300
3170.55996	7.19676
3168.63140	7.13919
3166.70283	7.07566
3164.77427	6.98954
3162.84570	6.87535
3160.91714	6.77705
3158.98857	6.69657
3157.06001	6.61557
3155.13145	6.55697
3153.20288	6.51547
3151.27432	6.47030
3149.34575	6.42398
3147.41719	6.35352
3145.48862	6.25967
3143.56006	6.18162
3141.63149	6.11804
3139.70293	6.05265
3137.77437	5.98540
3135.84580	5.91059
3133.91724	5.83322
3131.98867	5.75482
3130.06011	5.66956
3128.13154	5.59422
3126.20298	5.53526
3124.27441	5.46921
3122.34585	5.39538
3120.41729	5.33646
3118.48872	5.27683
3116.56016	5.19153
3114.63159	5.09889
3112.70303	5.02245
3110.77446	4.95897
3108.84590	4.89611
3106.91733	4.82823
3104.98877	4.75632
3103.06021	4.68506
3101.13164	4.61718
3099.20308	4.55134
3097.27451	4.48448
3095.34595	4.41385
3093.41738	4.34121
3091.48882	4.27272
3089.56025	4.20977
3087.63169	4.14750
3085.70312	4.08205
3083.77456	4.01454
3081.84600	3.94848
3079.91743	3.88466
3077.98887	3.82179
3076.06030	3.75903
3074.13174	3.69900
3072.20317	3.64305
3070.27461	3.58668
3068.34604	3.52783
3066.41748	3.46771
3064.48892	3.40708
3062.56035	3.34776
3060.63179	3.29211
3058.70322	3.23918
3056.77466	3.18577
3054.84609	3.13257
3052.91753	3.08096
3050.98896	3.02831
3049.06040	2.97421
3047.13184	2.92183
3045.20327	2.87219
3043.27471	2.82410
3041.34614	2.77583
3039.41758	2.72672
3037.48901	2.67793
3035.56045	2.63006
3033.63188	2.58345
3031.70332	2.53863
3029.77476	2.49488
3027.84619	2.45111
3025.91763	2.40726
3023.98906	2.36359
3022.06050	2.32093
3020.13193	2.28042
3018.20337	2.24143
3016.27480	2.20240
3014.34624	2.16297
3012.41768	2.12336
3010.48911	2.08405
3008.56055	2.04615
3006.63198	2.00974
3004.70342	1.97431
3002.77485	1.93929
3000.84629	1.90362
2998.91772	1.86777
2996.98916	1.83360
2995.06060	1.80120
2993.13203	1.76896
2991.20347	1.73641
2989.27490	1.70415
2987.34634	1.67255
2985.41777	1.64156
2983.48921	1.61105
2981.56064	1.58103
2979.63208	1.55150
2977.70352	1.52241
2975.77495	1.49392
2973.84639	1.46614
2971.91782	1.43880
2969.98926	1.41132
2968.06069	1.38396
2966.13213	1.35778
2964.20356	1.33289
2962.27500	1.30838
2960.34644	1.28388
2958.41787	1.25970
2956.48931	1.23609
2954.56074	1.21290
2952.63218	1.19009
2950.70361	1.16763
2948.77505	1.14539
2946.84648	1.12372
2944.91792	1.10286
2942.98936	1.08250
2941.06079	1.06214
2939.13223	1.04185
2937.20366	1.02212
2935.27510	1.00296
2933.34653	0.98407
2931.41797	0.96568
2929.48940	0.94792
2927.56084	0.93056
2925.63228	0.91357
2923.70371	0.89691
2921.77515	0.88038
2919.84658	0.86389
2917.91802	0.84715
2915.98945	0.83065
2914.06089	0.81550
2912.13232	0.80131
2910.20376	0.78684
2908.27520	0.77203
2906.34663	0.75796
2904.41807	0.74505
2902.48950	0.73244
2900.56094	0.71962
2898.63237	0.70690
2896.70381	0.69443
2894.77524	0.68219
2892.84668	0.67052
2890.91812	0.65938
2888.98955	0.64792
2887.06099	0.63594
2885.13242	0.62420
2883.20386	0.61328
2881.27529	0.60309
2879.34673	0.59301
2877.41816	0.58265
2875.48960	0.57232
2873.56104	0.56224
2871.63247	0.55244
2869.70391	0.54298
2867.77534	0.53359
2865.84678	0.52404
2863.91821	0.51462
2861.98965	0.50549
2860.06108	0.49670
2858.13252	0.48825
2856.20396	0.47988
2854.27539	0.47158
2852.34683	0.46376
2850.41826	0.45640
2848.48970	0.44907
2846.56113	0.44192
2844.63257	0.43516
2842.70400	0.42861
2840.77544	0.42219
2838.84687	0.41598
2836.91831	0.41005
2834.98975	0.40423
2833.06118	0.39846
2831.13262	0.39274
2829.20405	0.38700
2827.27549	0.38130
2825.34692	0.37566
2823.41836	0.36995
2821.48979	0.36427
2819.56123	0.35898
2817.63267	0.35387
2815.70410	0.34838
2813.77554	0.34279
2811.84697	0.33761
2809.91841	0.33263
2807.98984	0.32758
2806.06128	0.32264
2804.13271	0.31805
2802.20415	0.31370
2800.27559	0.30939
2798.34702	0.30500
2796.41846	0.30050
2794.48989	0.29615
2792.56133	0.29199
2790.63276	0.28787
2788.70420	0.28389
2786.77563	0.28004
2784.84707	0.27622
2782.91851	0.27252
2780.98994	0.26896
2779.06138	0.26546
2777.13281	0.26202
2775.20425	0.25853
2773.27568	0.25495
2771.34712	0.25150
2769.41855	0.24834
2767.48999	0.24530
2765.56143	0.24216
2763.63286	0.23892
2761.70430	0.23574
2759.77573	0.23275
2757.84717	0.22993
2755.91860	0.22724
2753.99004	0.22460
2752.06147	0.22198
2750.13291	0.21933
2748.20435	0.21664
2746.27578	0.21408
2744.34722	0.21163
2742.41865	0.20926
2740.49009	0.20699
2738.56152	0.20473
2736.63296	0.20248
2734.70439	0.20038
2732.77583	0.19833
2730.84727	0.19622
2728.91870	0.19404
2726.99014	0.19191
2725.06157	0.19002
2723.13301	0.18824
2721.20444	0.18646
2719.27588	0.18476
2717.34731	0.18308
2715.41875	0.18138
2713.49019	0.17979
2711.56162	0.17822
2709.63306	0.17645
2707.70449	0.17470
2705.77593	0.17319
2703.84736	0.17177
2701.91880	0.17036
2699.99023	0.16897
2698.06167	0.16763
2696.13311	0.16639
2694.20454	0.16509
2692.27598	0.16380
2690.34741	0.16279
2688.41885	0.16187
2686.49028	0.16069
2684.56172	0.15936
2682.63315	0.15821
2680.70459	0.15733
2678.77603	0.15649
2676.84746	0.15551
2674.91890	0.15452
2672.99033	0.15362
2671.06177	0.15270
2669.13320	0.15174
2667.20464	0.15085
2665.27607	0.15012
2663.34751	0.14942
2661.41895	0.14869
2659.49038	0.14805
2657.56182	0.14753
2655.63325	0.14699
2653.70469	0.14637
2651.77612	0.14572
2649.84756	0.14515
2647.91899	0.14469
2645.99043	0.14421
2644.06187	0.14373
2642.13330	0.14338
2640.20474	0.14303
2638.27617	0.14243
2636.34761	0.14185
2634.41904	0.14159
2632.49048	0.14144
2630.56191	0.14120
2628.63335	0.14107
2626.70479	0.14115
2624.77622	0.14112
2622.84766	0.14082
2620.91909	0.14056
2618.99053	0.14047
2617.06196	0.14042
2615.13340	0.14032
2613.20483	0.14018
2611.27627	0.13997
2609.34771	0.13981
2607.41914	0.13979
2605.49058	0.13985
2603.56201	0.14000
2601.63345	0.14027
2599.70488	0.14060
2597.77632	0.14096
2595.84775	0.14115
2593.91919	0.14124
2591.99062	0.14142
2590.06206	0.14148
2588.13350	0.14149
2586.20493	0.14176
2584.27637	0.14212
2582.34780	0.14231
2580.41924	0.14248
2578.49067	0.14282
2576.56211	0.14336
2574.63354	0.14396
2572.70498	0.14439
2570.77642	0.14472
2568.84785	0.14510
2566.91929	0.14547
2564.99072	0.14598
2563.06216	0.14673
2561.13359	0.14741
2559.20503	0.14794
2557.27646	0.14840
2555.34790	0.14885
2553.41934	0.14941
2551.49077	0.15002
2549.56221	0.15057
2547.63364	0.15116
2545.70508	0.15188
2543.77651	0.15265
2541.84795	0.15338
2539.91938	0.15412
2537.99082	0.15486
2536.06226	0.15553
2534.13369	0.15619
2532.20513	0.15701
2530.27656	0.15792
2528.34800	0.15865
2526.41943	0.15931
2524.49087	0.16013
2522.56230	0.16104
2520.63374	0.16191
2518.70518	0.16281
2516.77661	0.16365
2514.84805	0.16432
2512.91948	0.16506
2510.99092	0.16605
2509.06235	0.16699
2507.13379	0.16776
2505.20522	0.16857
2503.27666	0.16954
2501.34810	0.17050
2499.41953	0.17143
2497.49097	0.17234
2495.56240	0.17320
2493.63384	0.17409
2491.70527	0.17507
2489.77671	0.17598
2487.84814	0.17683
2485.91958	0.17785
2483.99102	0.17898
2482.06245	0.17994
2480.13389	0.18080
2478.20532	0.18173
2476.27676	0.18267
2474.34819	0.18364
2472.41963	0.18465
2470.49106	0.18556
2468.56250	0.18641
2466.63394	0.18733
2464.70537	0.18834
2462.77681	0.18943
2460.84824	0.19046
2458.91968	0.19141
2456.99111	0.19249
2455.06255	0.19369
2453.13398	0.19476
2451.20542	0.19580
2449.27686	0.19695
2447.34829	0.19805
2445.41973	0.19896
2443.49116	0.19986
2441.56260	0.20087
2439.63403	0.20187
2437.70547	0.20285
2435.77690	0.20405
2433.84834	0.20547
2431.91978	0.20671
2429.99121	0.20765
2428.06265	0.20856
2426.13408	0.20965
2424.20552	0.21079
2422.27695	0.21186
2420.34839	0.21290
2418.41982	0.21402
2416.49126	0.21525
2414.56270	0.21653
2412.63413	0.21778
2410.70557	0.21908
2408.77700	0.22050
2406.84844	0.22175
2404.91987	0.22284
2402.99131	0.22402
2401.06274	0.22532
2399.13418	0.22669
2397.20562	0.22800
2395.27705	0.22917
2393.34849	0.23021
2391.41992	0.23127
2389.49136	0.23243
2387.56279	0.23377
2385.63423	0.23535
2383.70566	0.23719
2381.77710	0.23927
2379.84854	0.24166
2377.91997	0.24433
2375.99141	0.24699
2374.06284	0.24950
2372.13428	0.25229
2370.20571	0.25570
2368.27715	0.25923
2366.34858	0.26219
2364.42002	0.26467
2362.49146	0.26692
2360.56289	0.26862
2358.63433	0.27013
2356.70576	0.27140
2354.77720	0.27158
2352.84863	0.27093
2350.92007	0.27014
2348.99150	0.27022
2347.06294	0.27177
2345.13437	0.27493
2343.20581	0.27848
2341.27725	0.28045
2339.34868	0.28164
2337.42012	0.28324
2335.49155	0.28510
2333.56299	0.28660
2331.63442	0.28753
2329.70586	0.28835
2327.77729	0.28934
2325.84873	0.29041
2323.92017	0.29160
2321.99160	0.29281
2320.06304	0.29407
2318.13447	0.29546
2316.20591	0.29667
2314.27734	0.29773
2312.34878	0.29878
2310.42021	0.29997
2308.49165	0.30142
2306.56309	0.30291
2304.63452	0.30435
2302.70596	0.30581
2300.77739	0.30727
2298.84883	0.30879
2296.92026	0.31052
2294.99170	0.31241
2293.06313	0.31431
2291.13457	0.31617
2289.20601	0.31802
2287.27744	0.31978
2285.34888	0.32146
2283.42031	0.32325
2281.49175	0.32522
2279.56318	0.32734
2277.63462	0.32954
2275.70605	0.33172
2273.77749	0.33377
2271.84893	0.33573
2269.92036	0.33773
2267.99180	0.33980
2266.06323	0.34189
2264.13467	0.34398
2262.20610	0.34612
2260.27754	0.34833
2258.34897	0.35050
2256.42041	0.35254
2254.49185	0.35466
2252.56328	0.35690
2250.63472	0.35911
2248.70615	0.36126
2246.77759	0.36332
2244.84902	0.36546
2242.92046	0.36783
2240.99189	0.37028
2239.06333	0.37251
2237.13477	0.37456
2235.20620	0.37668
2233.27764	0.37898
2231.34907	0.38131
2229.42051	0.38356
2227.49194	0.38574
2225.56338	0.38798
2223.63481	0.39031
2221.70625	0.39259
2219.77769	0.39483
2217.84912	0.39704
2215.92056	0.39917
2213.99199	0.40125
2212.06343	0.40331
2210.13486	0.40544
2208.20630	0.40766
2206.27773	0.40980
2204.34917	0.41181
2202.42061	0.41381
2200.49204	0.41588
2198.56348	0.41796
2196.63491	0.42005
2194.70635	0.42213
2192.77778	0.42406
2190.84922	0.42589
2188.92065	0.42772
2186.99209	0.42950
2185.06353	0.43126
2183.13496	0.43301
2181.20640	0.43473
2179.27783	0.43640
2177.34927	0.43806
2175.42070	0.43970
2173.49214	0.44117
2171.56357	0.44241
2169.63501	0.44378
2167.70645	0.44540
2165.77788	0.44686
2163.84932	0.44799
2161.92075	0.44899
2159.99219	0.45002
2158.06362	0.45108
2156.13506	0.45199
2154.20649	0.45270
2152.27793	0.45339
2150.34937	0.45418
2148.42080	0.45493
2146.49224	0.45551
2144.56367	0.45597
2142.63511	0.45642
2140.70654	0.45678
2138.77798	0.45703
2136.84941	0.45732
2134.92085	0.45756
2132.99229	0.45759
2131.06372	0.45742
2129.13516	0.45713
2127.20659	0.45681
2125.27803	0.45648
2123.34946	0.45596
2121.42090	0.45535
2119.49233	0.45470
2117.56377	0.45402
2115.63521	0.45333
2113.70664	0.45266
2111.77808	0.45194
2109.84951	0.45101
2107.92095	0.44986
2105.99238	0.44864
2104.06382	0.44749
2102.13525	0.44629
2100.20669	0.44492
2098.27812	0.44344
2096.34956	0.44204
2094.42100	0.44067
2092.49243	0.43908
2090.56387	0.43730
2088.63530	0.43555
2086.70674	0.43378
2084.77817	0.43178
2082.84961	0.42968
2080.92104	0.42767
2078.99248	0.42577
2077.06392	0.42378
2075.13535	0.42157
2073.20679	0.41928
2071.27822	0.41714
2069.34966	0.41506
2067.42109	0.41280
2065.49253	0.41039
2063.56396	0.40785
2061.63540	0.40522
2059.70684	0.40271
2057.77827	0.40036
2055.84971	0.39798
2053.92114	0.39536
2051.99258	0.39265
2050.06401	0.39003
2048.13545	0.38736
2046.20688	0.38453
2044.27832	0.38183
2042.34976	0.37932
2040.42119	0.37670
2038.49263	0.37383
2036.56406	0.37094
2034.63550	0.36821
2032.70693	0.36554
2030.77837	0.36275
2028.84980	0.35987
2026.92124	0.35711
2024.99268	0.35449
2023.06411	0.35184
2021.13555	0.34911
2019.20698	0.34636
2017.27842	0.34361
2015.34985	0.34080
2013.42129	0.33799
2011.49272	0.33518
2009.56416	0.33240
2007.63560	0.32971
2005.70703	0.32707
2003.77847	0.32442
2001.84990	0.32182
1999.92134	0.31923
1997.99277	0.31657
1996.06421	0.31392
1994.13564	0.31142
1992.20708	0.30900
1990.27852	0.30652
1988.34995	0.30400
1986.42139	0.30145
1984.49282	0.29892
1982.56426	0.29653
1980.63569	0.29423
1978.70713	0.29192
1976.77856	0.28966
1974.85000	0.28755
1972.92144	0.28546
1970.99287	0.28332
1969.06431	0.28121
1967.13574	0.27919
1965.20718	0.27718
1963.27861	0.27518
1961.35005	0.27323
1959.42148	0.27128
1957.49292	0.26944
1955.56436	0.26769
1953.63579	0.26595
1951.70723	0.26427
1949.77866	0.26272
1947.85010	0.26121
1945.92153	0.25970
1943.99297	0.25823
1942.06440	0.25676
1940.13584	0.25519
1938.20728	0.25363
1936.27871	0.25225
1934.35015	0.25101
1932.42158	0.24986
1930.49302	0.24874
1928.56445	0.24764
1926.63589	0.24651
1924.70732	0.24555
1922.77876	0.24471
1920.85020	0.24385
1918.92163	0.24305
1916.99307	0.24223
1915.06450	0.24130
1913.13594	0.24043
1911.20737	0.23969
1909.27881	0.23901
1907.35024	0.23835
1905.42168	0.23763
1903.49312	0.23696
1901.56455	0.23640
1899.63599	0.23591
1897.70742	0.23553
1895.77886	0.23518
1893.85029	0.23479
1891.92173	0.23446
1889.99316	0.23433
1888.06460	0.23409
1886.13604	0.23367
1884.20747	0.23330
1882.27891	0.23303
1880.35034	0.23287
1878.42178	0.23279
1876.49321	0.23281
1874.56465	0.23293
1872.63608	0.23319
1870.70752	0.23364
1868.77896	0.23434
1866.85039	0.23462
1864.92183	0.23428
1862.99326	0.23408
1861.06470	0.23429
1859.13613	0.23479
1857.20757	0.23525
1855.27900	0.23566
1853.35044	0.23606
1851.42187	0.23651
1849.49331	0.23711
1847.56475	0.23794
1845.63618	0.23897
1843.70762	0.24007
1841.77905	0.24082
1839.85049	0.24125
1837.92192	0.24197
1835.99336	0.24278
1834.06479	0.24362
1832.13623	0.24465
1830.20767	0.24621
1828.27910	0.24776
1826.35054	0.24881
1824.42197	0.25007
1822.49341	0.25131
1820.56484	0.25244
1818.63628	0.25377
1816.70771	0.25538
1814.77915	0.25701
1812.85059	0.25888
1810.92202	0.26107
1808.99346	0.26312
1807.06489	0.26495
1805.13633	0.26684
1803.20776	0.26912
1801.27920	0.27173
1799.35063	0.27456
1797.42207	0.27709
1795.49351	0.27957
1793.56494	0.28255
1791.63638	0.28620
1789.70781	0.28951
1787.77925	0.29204
1785.85068	0.29517
1783.92212	0.29898
1781.99355	0.30309
1780.06499	0.30734
1778.13643	0.31161
1776.20786	0.31562
1774.27930	0.31995
1772.35073	0.32583
1770.42217	0.33215
1768.49360	0.33750
1766.56504	0.34275
1764.63647	0.34821
1762.70791	0.35426
1760.77935	0.36186
1758.85078	0.36906
1756.92222	0.37630
1754.99365	0.38411
1753.06509	0.39123
1751.13652	0.39972
1749.20796	0.41047
1747.27939	0.42109
1745.35083	0.43035
1743.42227	0.44008
1741.49370	0.45094
1739.56514	0.46367
1737.63657	0.47617
1735.70801	0.48708
1733.77944	0.50349
1731.85088	0.52326
1729.92231	0.53908
1727.99375	0.55491
1726.06519	0.57179
1724.13662	0.59023
1722.20806	0.61037
1720.27949	0.62949
1718.35093	0.65178
1716.42236	0.68328
1714.49380	0.71305
1712.56523	0.73759
1710.63667	0.76154
1708.70811	0.78730
1706.77954	0.81644
1704.85098	0.85081
1702.92241	0.88156
1700.99385	0.91214
1699.06528	0.95656
1697.13672	0.99701
1695.20815	1.03817
1693.27959	1.07841
1691.35103	1.11103
1689.42246	1.14782
1687.49390	1.18566
1685.56533	1.22185
1683.63677	1.27694
1681.70820	1.33460
1679.77964	1.37267
1677.85107	1.40864
1675.92251	1.44950
1673.99395	1.49935
1672.06538	1.54383
1670.13682	1.58676
1668.20825	1.64012
1666.27969	1.68314
1664.35112	1.71963
1662.42256	1.76342
1660.49399	1.81037
1658.56543	1.84718
1656.63687	1.87843
1654.70830	1.90867
1652.77974	1.95813
1650.85117	2.00795
1648.92261	2.03034
1646.99404	2.05991
1645.06548	2.09421
1643.13691	2.11665
1641.20835	2.13003
1639.27979	2.14031
1637.35122	2.14560
1635.42266	2.14807
1633.49409	2.14847
1631.56553	2.14086
1629.63696	2.12809
1627.70840	2.10648
1625.77983	2.08025
1623.85127	2.04544
1621.92271	2.00203
1619.99414	1.96269
1618.06558	1.92348
1616.13701	1.86776
1614.20845	1.81034
1612.27988	1.76532
1610.35132	1.71784
1608.42275	1.66670
1606.49419	1.61642
1604.56562	1.56962
1602.63706	1.52431
1600.70850	1.47997
1598.77993	1.43866
1596.85137	1.39926
1594.92280	1.36076
1592.99424	1.32340
1591.06567	1.28889
1589.13711	1.25602
1587.20854	1.22465
1585.27998	1.19492
1583.35142	1.16632
1581.42285	1.13960
1579.49429	1.11632
1577.56572	1.09490
1575.63716	1.06844
1573.70859	1.04404
1571.78003	1.02727
1569.85146	1.00940
1567.92290	0.98877
1565.99434	0.97163
1564.06577	0.95660
1562.13721	0.94398
1560.20864	0.93333
1558.28008	0.91451
1556.35151	0.89588
1554.42295	0.88407
1552.49438	0.87295
1550.56582	0.86229
1548.63726	0.85152
1546.70869	0.84197
1544.78013	0.83361
1542.85156	0.82543
1540.92300	0.81616
1538.99443	0.80334
1537.06587	0.79370
1535.13730	0.78750
1533.20874	0.78020
1531.28018	0.77209
1529.35161	0.76576
1527.42305	0.75989
1525.49448	0.75384
1523.56592	0.74838
1521.63735	0.74251
1519.70879	0.73578
1517.78022	0.73019
1515.85166	0.72479
1513.92310	0.71923
1511.99453	0.71442
1510.06597	0.71049
1508.13740	0.70732
1506.20884	0.70236
1504.28027	0.69680
1502.35171	0.69304
1500.42314	0.68993
1498.49458	0.68696
1496.56602	0.68348
1494.63745	0.67987
1492.70889	0.67723
1490.78032	0.67536
1488.85176	0.67306
1486.92319	0.66992
1484.99463	0.66669
1483.06606	0.66395
1481.13750	0.66162
1479.20894	0.65940
1477.28037	0.65738
1475.35181	0.65552
1473.42324	0.65354
1471.49468	0.65061
1469.56611	0.64723
1467.63755	0.64440
1465.70898	0.64194
1463.78042	0.63946
1461.85186	0.63722
1459.92329	0.63547
1457.99473	0.63368
1456.06616	0.63068
1454.13760	0.62751
1452.20903	0.62510
1450.28047	0.62265
1448.35190	0.61993
1446.42334	0.61733
1444.49478	0.61525
1442.56621	0.61352
1440.63765	0.61195
1438.70908	0.61055
1436.78052	0.60901
1434.85195	0.60715
1432.92339	0.60548
1430.99482	0.60411
1429.06626	0.60272
1427.13770	0.60141
1425.20913	0.60035
1423.28057	0.59930
1421.35200	0.59817
1419.42344	0.59714
1417.49487	0.59566
1415.56631	0.59355
1413.63774	0.59156
1411.70918	0.58996
1409.78062	0.58846
1407.85205	0.58695
1405.92349	0.58562
1403.99492	0.58427
1402.06636	0.58277
1400.13779	0.58142
1398.20923	0.58016
1396.28066	0.57881
1394.35210	0.57728
1392.42354	0.57569
1390.49497	0.57431
1388.56641	0.57319
1386.63784	0.57190
1384.70928	0.57032
1382.78071	0.56883
1380.85215	0.56747
1378.92358	0.56627
1376.99502	0.56536
1375.06646	0.56459
1373.13789	0.56365
1371.20933	0.56263
1369.28076	0.56179
1367.35220	0.56102
1365.42363	0.56014
1363.49507	0.55928
1361.56650	0.55840
1359.63794	0.55738
1357.70937	0.55641
1355.78081	0.55552
1353.85225	0.55465
1351.92368	0.55372
1349.99512	0.55278
1348.06655	0.55191
1346.13799	0.55103
1344.20942	0.55009
1342.28086	0.54922
1340.35229	0.54845
1338.42373	0.54764
1336.49517	0.54675
1334.56660	0.54582
1332.63804	0.54497
1330.70947	0.54428
1328.78091	0.54355
1326.85234	0.54265
1324.92378	0.54177
1322.99521	0.54102
1321.06665	0.54038
1319.13809	0.53978
1317.20952	0.53921
1315.28096	0.53860
1313.35239	0.53773
1311.42383	0.53661
1309.49526	0.53561
1307.56670	0.53491
1305.63813	0.53437
1303.70957	0.53366
1301.78101	0.53272
1299.85244	0.53176
1297.92388	0.53096
1295.99531	0.53019
1294.06675	0.52932
1292.13818	0.52855
1290.20962	0.52797
1288.28105	0.52746
1286.35249	0.52698
1284.42393	0.52649
1282.49536	0.52597
1280.56680	0.52552
1278.63823	0.52511
1276.70967	0.52463
1274.78110	0.52407
1272.85254	0.52356
1270.92397	0.52314
1268.99541	0.52270
1267.06685	0.52220
1265.13828	0.52168
1263.20972	0.52123
1261.28115	0.52088
1259.35259	0.52053
1257.42402	0.52009
1255.49546	0.51963
1253.56689	0.51932
1251.63833	0.51917
1249.70977	0.51897
1247.78120	0.51865
1245.85264	0.51833
1243.92407	0.51802
1241.99551	0.51754
1240.06694	0.51687
1238.13838	0.51631
1236.20981	0.51592
1234.28125	0.51542
1232.35269	0.51477
1230.42412	0.51409
1228.49556	0.51342
1226.56699	0.51282
1224.63843	0.51243
1222.70986	0.51213
1220.78130	0.51160
1218.85273	0.51080
1216.92417	0.51006
1214.99561	0.50950
1213.06704	0.50892
1211.13848	0.50827
1209.20991	0.50772
1207.28135	0.50722
1205.35278	0.50656
1203.42422	0.50583
1201.49565	0.50521
1199.56709	0.50479
1197.63853	0.50452
1195.70996	0.50419
1193.78140	0.50374
1191.85283	0.50331
1189.92427	0.50297
1187.99570	0.50265
1186.06714	0.50242
1184.13857	0.50235
1182.21001	0.50228
1180.28145	0.50227
1178.35288	0.50253
1176.42432	0.50302
1174.49575	0.50344
1172.56719	0.50368
1170.63862	0.50392
1168.71006	0.50435
1166.78149	0.50485
1164.85293	0.50523
1162.92437	0.50538
1160.99580	0.50541
1159.06724	0.50531
1157.13867	0.50489
1155.21011	0.50408
1153.28154	0.50294
1151.35298	0.50155
1149.42441	0.49991
1147.49585	0.49806
1145.56729	0.49600
1143.63872	0.49379
1141.71016	0.49159
1139.78159	0.48939
1137.85303	0.48718
1135.92446	0.48524
1133.99590	0.48366
1132.06733	0.48211
1130.13877	0.48042
1128.21021	0.47891
1126.28164	0.47776
1124.35308	0.47663
1122.42451	0.47535
1120.49595	0.47417
1118.56738	0.47329
1116.63882	0.47270
1114.71025	0.47237
1112.78169	0.47225
1110.85312	0.47224
1108.92456	0.47249
1106.99600	0.47319
1105.06743	0.47432
1103.13887	0.47584
1101.21030	0.47771
1099.28174	0.47984
1097.35317	0.48238
1095.42461	0.48543
1093.49604	0.48891
1091.56748	0.49290
1089.63892	0.49763
1087.71035	0.50304
1085.78179	0.50883
1083.85322	0.51500
1081.92466	0.52138
1079.99609	0.52716
1078.06753	0.53122
1076.13896	0.53264
1074.21040	0.53111
1072.28184	0.52709
1070.35327	0.52141
1068.42471	0.51490
1066.49614	0.50810
1064.56758	0.50156
1062.63901	0.49571
1060.71045	0.49058
1058.78188	0.48612
1056.85332	0.48249
1054.92476	0.47958
1052.99619	0.47687
1051.06763	0.47414
1049.13906	0.47182
1047.21050	0.47044
1045.28193	0.46981
1043.35337	0.46909
1041.42480	0.46806
1039.49624	0.46730
1037.56768	0.46683
1035.63911	0.46629
1033.71055	0.46578
1031.78198	0.46549
1029.85342	0.46553
1027.92485	0.46601
1025.99629	0.46650
1024.06772	0.46680
1022.13916	0.46736
1020.21060	0.46847
1018.28203	0.46977
1016.35347	0.47084
1014.42490	0.47160
1012.49634	0.47249
1010.56777	0.47395
1008.63921	0.47586
1006.71064	0.47796
1004.78208	0.48024
1002.85352	0.48271
1000.92495	0.48526
998.99639	0.48807
997.06782	0.49132
995.13926	0.49496
993.21069	0.49879
991.28213	0.50226
989.35356	0.50489
987.42500	0.50674
985.49644	0.50812
983.56787	0.50930
981.63931	0.51052
979.71074	0.51209
977.78218	0.51419
975.85361	0.51679
973.92505	0.51980
971.99648	0.52322
970.06792	0.52697
968.13936	0.53081
966.21079	0.53463
964.28223	0.53868
962.35366	0.54334
960.42510	0.54871
958.49653	0.55444
956.56797	0.56032
954.63940	0.56628
952.71084	0.57246
950.78228	0.57904
948.85371	0.58556
946.92515	0.59162
944.99658	0.59769
943.06802	0.60392
941.13945	0.61010
939.21089	0.61627
937.28232	0.62194
935.35376	0.62692
933.42520	0.63216
931.49663	0.63842
929.56807	0.64547
927.63950	0.65238
925.71094	0.65850
923.78237	0.66377
921.85381	0.66887
919.92524	0.67503
917.99668	0.68231
916.06812	0.68973
914.13955	0.69692
912.21099	0.70419
910.28242	0.71209
908.35386	0.72080
906.42529	0.72970
904.49673	0.73838
902.56816	0.74704
900.63960	0.75602
898.71104	0.76547
896.78247	0.77572
894.85391	0.78667
892.92534	0.79664
890.99678	0.80544
889.06821	0.81481
887.13965	0.82484
885.21108	0.83561
883.28252	0.84810
881.35396	0.86035
879.42539	0.87093
877.49683	0.88230
875.56826	0.89479
873.63970	0.90690
871.71113	0.91854
869.78257	0.92993
867.85400	0.94192
865.92544	0.95437
863.99687	0.96584
862.06831	0.97610
860.13975	0.98641
858.21118	0.99652
856.28262	1.00674
854.35405	1.01913
852.42549	1.03259
850.49692	1.04621
848.56836	1.05969
846.63979	1.07087
844.71123	1.07992
842.78267	1.08963
840.85410	1.10286
838.92554	1.11659
836.99697	1.12644
835.06841	1.13509
833.13984	1.14512
831.21128	1.15644
829.28271	1.16979
827.35415	1.18350
825.42559	1.19520
823.49702	1.20436
821.56846	1.21123
819.63989	1.21799
817.71133	1.22448
815.78276	1.22923
813.85420	1.23134
811.92563	1.23329
809.99707	1.23600
808.06851	1.24086
806.13994	1.25724
804.21138	1.27873
802.28281	1.28903
800.35425	1.27952
798.42568	1.26156
796.49712	1.27662
794.56855	1.33735
792.63999	1.39495
790.71143	1.42490
788.78286	1.43079
786.85430	1.38177
784.92573	1.32660
782.99717	1.32197
781.06860	1.36252
779.14004	1.36964
777.21147	1.29855
775.28291	1.23692
773.35435	1.23429
771.42578	1.28828
769.49722	1.33401
767.56865	1.31274
765.64009	1.27885
763.71152	1.22151
761.78296	1.11919
759.85439	1.05086
757.92583	1.05337
755.99727	1.09884
754.06870	1.19243
752.14014	1.36728
750.21157	1.43682
748.28301	1.21328
746.35444	1.03402
744.42588	0.95793
742.49731	0.92604
740.56875	0.89646
738.64019	0.90384
736.71162	0.94943
734.78306	0.90909
732.85449	0.72601
730.92593	0.57023
728.99736	0.49353
727.06880	0.45627
725.14023	0.44864
723.21167	0.47293
721.28311	0.47690
719.35454	0.41937
717.42598	0.35375
715.49741	0.35242
713.56885	0.45035
711.64028	0.48247
709.71172	0.28640
707.78315	0.10460
705.85459	0.04222
703.92603	0.08665
701.99746	0.12353
700.06890	0.16699
698.14033	0.20162
696.21177	0.18989
694.28320	0.24908
692.35464	0.40809
690.42607	0.39862
688.49751	0.19852
686.56895	0.09152
684.64038	0.11262
682.71182	0.24726
680.78325	0.33653
678.85469	0.25352
676.92612	0.17518
674.99756	0.21295
673.06899	0.31737
671.14043	0.24617
669.21187	0.11987
667.28330	0.08521
665.35474	0.05654
663.42617	0.06780
661.49761	0.15671
659.56904	0.22921
657.64048	0.28463
655.71191	0.32600
653.78335	0.30353
651.85479	0.26291
649.92622	0.27188
647.99766	0.35489
646.06909	0.47623
644.14053	0.65002
642.21196	0.59513
640.28340	0.22399
638.35483	0.06113
636.42627	0.07036
634.49771	0.16485
632.56914	0.21287
630.64058	0.20461
628.71201	0.28992
626.78345	0.48800
624.85488	0.47883
622.92632	0.32154
620.99775	0.24536
619.06919	0.22186
617.14062	0.23263
615.21206	0.21295
613.28350	0.15129
611.35493	0.20800
609.42637	0.52343
607.49780	0.58022
605.56924	0.32780
603.64067	0.18098
601.71211	0.08859
599.78354	0.08377
597.85498	0.14762
595.92642	0.20213
593.99785	0.22247
592.06929	0.22958
590.14072	0.25587
588.21216	0.28082
586.28359	0.24287
584.35503	0.11710
582.42646	0.02238
580.49790	0.04387
578.56934	0.08181
576.64077	0.05095
574.71221	0.01857
572.78364	0.05910
570.85508	0.12789
568.92651	0.16865
566.99795	0.21665
565.06938	0.27540
563.14082	0.25898
561.21226	0.24112
559.28369	0.27986
557.35513	0.25835
555.42656	0.17019
553.49800	0.14734
551.56943	0.16885
549.64087	0.19470
547.71230	0.27679
545.78374	0.40389
543.85518	0.28103
541.92661	0.14375
539.99805	0.08183
538.06948	0.07183
536.14092	0.08942
534.21235	0.15352
532.28379	0.29112
530.35522	0.31615
528.42666	0.19296
526.49810	0.10397
524.56953	0.07101
522.64097	0.08564
520.71240	0.12800
518.78384	0.20009
516.85527	0.22690
514.92671	0.17345
512.99814	0.16898
511.06958	0.19020
509.14102	0.18368
507.21245	0.18611
505.28389	0.21556
503.35532	0.23963
501.42676	0.21034
499.49819	0.15755
