3997.91411	0.07861
3995.98555	0.07895
3994.05698	0.07962
3992.12842	0.08020
3990.19985	0.08036
3988.27129	0.08063
3986.34272	0.08142
3984.41416	0.08204
3982.48560	0.08206
3980.55703	0.08193
3978.62847	0.08194
3976.69990	0.08190
3974.77134	0.08172
3972.84277	0.08177
3970.91421	0.08231
3968.98564	0.08263
3967.05708	0.08223
3965.12852	0.08176
3963.19995	0.08198
3961.27139	0.08273
3959.34282	0.08317
3957.41426	0.08294
3955.48569	0.08252
3953.55713	0.08247
3951.62856	0.08291
3949.70000	0.08347
3947.77144	0.08381
3945.84287	0.08394
3943.91431	0.08400
3941.98574	0.08391
3940.05718	0.08335
3938.12861	0.08273
3936.20005	0.08260
3934.27148	0.08289
3932.34292	0.08308
3930.41436	0.08250
3928.48579	0.08163
3926.55723	0.08149
3924.62866	0.08198
3922.70010	0.08240
3920.77153	0.08242
3918.84297	0.08243
3916.91440	0.08246
3914.98584	0.08223
3913.05728	0.08190
3911.12871	0.08164
3909.20015	0.08147
3907.27158	0.08168
3905.34302	0.08246
3903.41445	0.08353
3901.48589	0.08426
3899.55732	0.08413
3897.62876	0.08301
3895.70020	0.08175
3893.77163	0.08151
3891.84307	0.08245
3889.91450	0.08307
3887.98594	0.08250
3886.05737	0.08252
3884.12881	0.08358
3882.20024	0.08407
3880.27168	0.08404
3878.34312	0.08369
3876.41455	0.08312
3874.48599	0.08339
3872.55742	0.08443
3870.62886	0.08527
3868.70029	0.08556
3866.77173	0.08536
3864.84316	0.08580
3862.91460	0.08676
3860.98604	0.08651
3859.05747	0.08569
3857.12891	0.08590
3855.20034	0.08716
3853.27178	0.08917
3851.34321	0.09055
3849.41465	0.08955
3847.48608	0.08818
3845.55752	0.08783
3843.62896	0.08859
3841.70039	0.08980
3839.77183	0.09078
3837.84326	0.09156
3835.91470	0.09184
3833.98613	0.09176
3832.05757	0.09222
3830.12900	0.09310
3828.20044	0.09382
3826.27187	0.09467
3824.34331	0.09587
3822.41475	0.09746
3820.48618	0.09956
3818.55762	0.10047
3816.62905	0.10016
3814.70049	0.10021
3812.77192	0.10036
3810.84336	0.10030
3808.91479	0.10059
3806.98623	0.10212
3805.05767	0.10441
3803.12910	0.10584
3801.20054	0.10736
3799.27197	0.10917
3797.34341	0.11007
3795.41484	0.11056
3793.48628	0.11078
3791.55771	0.11118
3789.62915	0.11232
3787.70059	0.11392
3785.77202	0.11554
3783.84346	0.11710
3781.91489	0.11853
3779.98633	0.12000
3778.05776	0.12158
3776.12920	0.12280
3774.20063	0.12404
3772.27207	0.12564
3770.34351	0.12762
3768.41494	0.13003
3766.48638	0.13221
3764.55781	0.13403
3762.62925	0.13580
3760.70068	0.13796
3758.77212	0.14077
3756.84355	0.14355
3754.91499	0.14577
3752.98643	0.14827
3751.05786	0.15193
3749.12930	0.15596
3747.20073	0.15871
3745.27217	0.16116
3743.34360	0.16444
3741.41504	0.16747
3739.48647	0.17003
3737.55791	0.17322
3735.62935	0.17792
3733.70078	0.18377
3731.77222	0.18840
3729.84365	0.19188
3727.91509	0.19570
3725.98652	0.20100
3724.05796	0.20766
3722.12939	0.21463
3720.20083	0.22146
3718.27227	0.22790
3716.34370	0.23436
3714.41514	0.24128
3712.48657	0.25013
3710.55801	0.26317
3708.62944	0.27770
3706.70088	0.28949
3704.77231	0.30010
3702.84375	0.31261
3700.91519	0.32930
3698.98662	0.34753
3697.05806	0.36453
3695.12949	0.38255
3693.20093	0.40209
3691.27236	0.42337
3689.34380	0.45024
3687.41523	0.48321
3685.48667	0.51291
3683.55811	0.53854
3681.62954	0.56583
3679.70098	0.59685
3677.77241	0.62991
3675.84385	0.66904
3673.91528	0.72072
3671.98672	0.76347
3670.05815	0.80164
3668.12959	0.85273
3666.20103	0.89993
3664.27246	0.94013
3662.34390	0.98311
3660.41533	1.02934
3658.48677	1.07491
3656.55820	1.12342
3654.62964	1.17752
3652.70107	1.22325
3650.77251	1.26303
3648.84395	1.31711
3646.91538	1.38320
3644.98682	1.43332
3643.05825	1.47251
3641.12969	1.51206
3639.20112	1.55481
3637.27256	1.59802
3635.34399	1.64079
3633.41543	1.68376
3631.48687	1.72409
3629.55830	1.76524
3627.62974	1.81863
3625.70117	1.86827
3623.77261	1.90172
3621.84404	1.93363
3619.91548	1.97076
3617.98691	2.01572
3616.05835	2.05964
3614.12979	2.09718
3612.20122	2.13630
3610.27266	2.17561
3608.34409	2.21491
3606.41553	2.25658
3604.48696	2.29578
3602.55840	2.33041
3600.62983	2.36668
3598.70127	2.40668
3596.77271	2.44732
3594.84414	2.48826
3592.91558	2.52958
3590.98701	2.56858
3589.05845	2.60463
3587.12988	2.64671
3585.20132	2.69394
3583.27275	2.73490
3581.34419	2.77240
3579.41562	2.81294
3577.48706	2.85599
3575.55850	2.89854
3573.62993	2.94189
3571.70137	2.98455
3569.77280	3.02478
3567.84424	3.06757
3565.91567	3.12039
3563.98711	3.17197
3562.05854	3.21323
3560.12998	3.25353
3558.20142	3.29882
3556.27285	3.34659
3554.34429	3.39301
3552.41572	3.44070
3550.48716	3.48799
3548.55859	3.53154
3546.63003	3.57494
3544.70146	3.62269
3542.77290	3.67083
3540.84434	3.71446
3538.91577	3.75749
3536.98721	3.80449
3535.05864	3.85520
3533.13008	3.90395
3531.20151	3.95054
3529.27295	3.99827
3527.34438	4.04772
3525.41582	4.09585
3523.48726	4.14163
3521.55869	4.19022
3519.63013	4.24164
3517.70156	4.29202
3515.77300	4.34082
3513.84443	4.38851
3511.91587	4.43565
3509.98730	4.48632
3508.05874	4.53722
3506.13018	4.58057
3504.20161	4.62192
3502.27305	4.66773
3500.34448	4.71523
3498.41592	4.76624
3496.48735	4.82432
3494.55879	4.88170
3492.63022	4.93031
3490.70166	4.97115
3488.77310	5.00816
3486.84453	5.04417
3484.91597	5.08972
3482.98740	5.14876
3481.05884	5.20354
3479.13027	5.24866
3477.20171	5.29877
3475.27314	5.35477
3473.34458	5.40753
3471.41602	5.45533
3469.48745	5.50012
3467.55889	5.53930
3465.63032	5.57637
3463.70176	5.62374
3461.77319	5.68423
3459.84463	5.75224
3457.91606	5.81632
3455.98750	5.86943
3454.05894	5.91591
3452.13037	5.96158
3450.20181	6.00264
3448.27324	6.03816
3446.34468	6.07960
3444.41611	6.12413
3442.48755	6.18135
3440.55898	6.24726
3438.63042	6.28827
3436.70186	6.31380
3434.77329	6.35373
3432.84473	6.41162
3430.91616	6.47269
3428.98760	6.51820
3427.05903	6.55456
3425.13047	6.60665
3423.20190	6.66356
3421.27334	6.72074
3419.34478	6.78320
3417.41621	6.84527
3415.48765	6.89496
3413.55908	6.91084
3411.63052	6.93673
3409.70195	7.01584
3407.77339	7.11741
3405.84482	7.17582
3403.91626	7.17944
3401.98770	7.16858
3400.05913	7.16398
3398.13057	7.17320
3396.20200	7.20315
3394.27344	7.25285
3392.34487	7.30834
3390.41631	7.36643
3388.48774	7.43064
3386.55918	7.51176
3384.63062	7.56853
3382.70205	7.60040
3380.77349	7.69002
3378.84492	7.80044
3376.91636	7.79813
3374.98779	7.69936
3373.05923	7.66401
3371.13066	7.72017
3369.20210	7.78799
3367.27354	7.79230
3365.34497	7.76901
3363.41641	7.81685
3361.48784	7.88840
3359.55928	7.90514
3357.63071	7.92161
3355.70215	7.96794
3353.77358	7.95811
3351.84502	7.90255
3349.91646	7.88313
3347.98789	7.92093
3346.05933	7.95404
3344.13076	7.94932
3342.20220	7.97589
3340.27363	8.01856
3338.34507	8.01490
3336.41650	7.97900
3334.48794	7.99093
3332.55937	8.06673
3330.63081	8.16287
3328.70225	8.23259
3326.77368	8.23193
3324.84512	8.19598
3322.91655	8.17823
3320.98799	8.16645
3319.05942	8.09555
3317.13086	8.00724
3315.20229	7.97847
3313.27373	8.00024
3311.34517	8.02975
3309.41660	8.08010
3307.48804	8.18375
3305.55947	8.22316
3303.63091	8.14885
3301.70234	8.14831
3299.77378	8.27249
3297.84521	8.35738
3295.91665	8.32888
3293.98809	8.22353
3292.05952	8.16065
3290.13096	8.24693
3288.20239	8.38835
3286.27383	8.41069
3284.34526	8.30113
3282.41670	8.18223
3280.48813	8.10019
3278.55957	8.07312
3276.63101	8.10389
3274.70244	8.15371
3272.77388	8.19558
3270.84531	8.18305
3268.91675	8.12331
3266.98818	8.12091
3265.05962	8.20309
3263.13105	8.24729
3261.20249	8.24772
3259.27393	8.28638
3257.34536	8.30894
3255.41680	8.27465
3253.48823	8.23567
3251.55967	8.17225
3249.63110	8.05608
3247.70254	7.99741
3245.77397	8.01046
3243.84541	8.01687
3241.91685	8.04377
3239.98828	8.09635
3238.05972	8.15679
3236.13115	8.22180
3234.20259	8.19311
3232.27402	8.07464
3230.34546	8.00661
3228.41689	8.01325
3226.48833	8.01563
3224.55977	7.98521
3222.63120	7.96950
3220.70264	8.01042
3218.77407	8.08029
3216.84551	8.09327
3214.91694	8.06483
3212.98838	8.03718
3211.05981	8.02190
3209.13125	8.05492
3207.20269	8.05748
3205.27412	7.96479
3203.34556	7.85372
3201.41699	7.79848
3199.48843	7.81060
3197.55986	7.81630
3195.63130	7.75125
3193.70273	7.66901
3191.77417	7.64537
3189.84561	7.65232
3187.91704	7.60383
3185.98848	7.51284
3184.05991	7.44960
3182.13135	7.41043
3180.20278	7.35600
3178.27422	7.28760
3176.34565	7.21686
3174.41709	7.15380
3172.48853	7.12068
3170.55996	7.09905
3168.63140	7.03924
3166.70283	6.95257
3164.77427	6.88495
3162.84570	6.83364
3160.91714	6.78738
3158.98857	6.74675
3157.06001	6.69349
3155.13145	6.62787
3153.20288	6.56020
3151.27432	6.48990
3149.34575	6.42042
3147.41719	6.35566
3145.48862	6.29241
3143.56006	6.23191
3141.63149	6.17031
3139.70293	6.09092
3137.77437	6.00295
3135.84580	5.92092
3133.91724	5.84448
3131.98867	5.77509
3130.06011	5.71468
3128.13154	5.65035
3126.20298	5.56559
3124.27441	5.47544
3122.34585	5.39881
3120.41729	5.33290
3118.48872	5.26396
3116.56016	5.18565
3114.63159	5.11053
3112.70303	5.04629
3110.77446	4.98049
3108.84590	4.90781
3106.91733	4.84293
3104.98877	4.78545
3103.06021	4.72112
3101.13164	4.64919
3099.20308	4.57614
3097.27451	4.50594
3095.34595	4.43839
3093.41738	4.37248
3091.48882	4.30846
3089.56025	4.24519
3087.63169	4.18144
3085.70312	4.11737
3083.77456	4.05354
3081.84600	3.99089
3079.91743	3.92948
3077.98887	3.86820
3076.06030	3.80672
3074.13174	3.74618
3072.20317	3.68779
3070.27461	3.63050
3068.34604	3.57215
3066.41748	3.51329
3064.48892	3.45687
3062.56035	3.40215
3060.63179	3.34584
3058.70322	3.28859
3056.77466	3.23206
3054.84609	3.17663
3052.91753	3.12346
3050.98896	3.07253
3049.06040	3.02212
3047.13184	2.97106
3045.20327	2.91990
3043.27471	2.87025
3041.34614	2.82190
3039.41758	2.77305
3037.48901	2.72421
3035.56045	2.67707
3033.63188	2.63108
3031.70332	2.58525
3029.77476	2.54068
3027.84619	2.49785
3025.91763	2.45474
3023.98906	2.41104
3022.06050	2.36869
3020.13193	2.32762
3018.20337	2.28643
3016.27480	2.24546
3014.34624	2.20580
3012.41768	2.16708
3010.48911	2.12869
3008.56055	2.09127
3006.63198	2.05492
3004.70342	2.01887
3002.77485	1.98297
3000.84629	1.94762
2998.91772	1.91322
2996.98916	1.87989
2995.06060	1.84699
2993.13203	1.81398
2991.20347	1.78160
2989.27490	1.75049
2987.34634	1.72016
2985.41777	1.69053
2983.48921	1.66177
2981.56064	1.63332
2979.63208	1.60502
2977.70352	1.57727
2975.77495	1.54989
2973.84639	1.52274
2971.91782	1.49641
2969.98926	1.47113
2968.06069	1.44614
2966.13213	1.42103
2964.20356	1.39623
2962.27500	1.37178
2960.34644	1.34754
2958.41787	1.32373
2956.48931	1.30040
2954.56074	1.27748
2952.63218	1.25508
2950.70361	1.23311
2948.77505	1.21086
2946.84648	1.18847
2944.91792	1.16689
2942.98936	1.14614
2941.06079	1.12591
2939.13223	1.10592
2937.20366	1.08630
2935.27510	1.06759
2933.34653	1.04937
2931.41797	1.03078
2929.48940	1.01200
2927.56084	0.99369
2925.63228	0.97578
2923.70371	0.95809
2921.77515	0.94108
2919.84658	0.92474
2917.91802	0.90812
2915.98945	0.89108
2914.06089	0.87483
2912.13232	0.85932
2910.20376	0.84400
2908.27520	0.82945
2906.34663	0.81544
2904.41807	0.80096
2902.48950	0.78638
2900.56094	0.77253
2898.63237	0.75930
2896.70381	0.74637
2894.77524	0.73361
2892.84668	0.72128
2890.91812	0.70942
2888.98955	0.69767
2887.06099	0.68625
2885.13242	0.67546
2883.20386	0.66500
2881.27529	0.65455
2879.34673	0.64418
2877.41816	0.63401
2875.48960	0.62399
2873.56104	0.61423
2871.63247	0.60463
2869.70391	0.59466
2867.77534	0.58415
2865.84678	0.57332
2863.91821	0.56250
2861.98965	0.55215
2860.06108	0.54254
2858.13252	0.53334
2856.20396	0.52412
2854.27539	0.51504
2852.34683	0.50637
2850.41826	0.49807
2848.48970	0.49016
2846.56113	0.48266
2844.63257	0.47543
2842.70400	0.46829
2840.77544	0.46140
2838.84687	0.45481
2836.91831	0.44841
2834.98975	0.44210
2833.06118	0.43576
2831.13262	0.42947
2829.20405	0.42333
2827.27549	0.41725
2825.34692	0.41121
2823.41836	0.40533
2821.48979	0.39971
2819.56123	0.39417
2817.63267	0.38856
2815.70410	0.38292
2813.77554	0.37727
2811.84697	0.37173
2809.91841	0.36646
2807.98984	0.36130
2806.06128	0.35622
2804.13271	0.35125
2802.20415	0.34621
2800.27559	0.34124
2798.34702	0.33659
2796.41846	0.33215
2794.48989	0.32766
2792.56133	0.32318
2790.63276	0.31884
2788.70420	0.31457
2786.77563	0.31031
2784.84707	0.30595
2782.91851	0.30167
2780.98994	0.29775
2779.06138	0.29400
2777.13281	0.29023
2775.20425	0.28657
2773.27568	0.28307
2771.34712	0.27960
2769.41855	0.27611
2767.48999	0.27271
2765.56143	0.26943
2763.63286	0.26614
2761.70430	0.26284
2759.77573	0.25957
2757.84717	0.25632
2755.91860	0.25322
2753.99004	0.25046
2752.06147	0.24781
2750.13291	0.24497
2748.20435	0.24201
2746.27578	0.23909
2744.34722	0.23634
2742.41865	0.23386
2740.49009	0.23162
2738.56152	0.22935
2736.63296	0.22676
2734.70439	0.22410
2732.77583	0.22179
2730.84727	0.21974
2728.91870	0.21770
2726.99014	0.21556
2725.06157	0.21332
2723.13301	0.21122
2721.20444	0.20937
2719.27588	0.20745
2717.34731	0.20538
2715.41875	0.20347
2713.49019	0.20178
2711.56162	0.20012
2709.63306	0.19836
2707.70449	0.19657
2705.77593	0.19490
2703.84736	0.19346
2701.91880	0.19219
2699.99023	0.19081
2698.06167	0.18922
2696.13311	0.18764
2694.20454	0.18624
2692.27598	0.18492
2690.34741	0.18360
2688.41885	0.18228
2686.49028	0.18099
2684.56172	0.17973
2682.63315	0.17851
2680.70459	0.17727
2678.77603	0.17608
2676.84746	0.17506
2674.91890	0.17422
2672.99033	0.17341
2671.06177	0.17248
2669.13320	0.17151
2667.20464	0.17064
2665.27607	0.16970
2663.34751	0.16859
2661.41895	0.16758
2659.49038	0.16673
2657.56182	0.16587
2655.63325	0.16494
2653.70469	0.16410
2651.77612	0.16347
2649.84756	0.16296
2647.91899	0.16233
2645.99043	0.16160
2644.06187	0.16109
2642.13330	0.16074
2640.20474	0.16021
2638.27617	0.15956
2636.34761	0.15912
2634.41904	0.15893
2632.49048	0.15872
2630.56191	0.15842
2628.63335	0.15810
2626.70479	0.15781
2624.77622	0.15752
2622.84766	0.15724
2620.91909	0.15699
2618.99053	0.15677
2617.06196	0.15649
2615.13340	0.15623
2613.20483	0.15606
2611.27627	0.15595
2609.34771	0.15589
2607.41914	0.15581
2605.49058	0.15564
2603.56201	0.15546
2601.63345	0.15547
2599.70488	0.15564
2597.77632	0.15584
2595.84775	0.15607
2593.91919	0.15627
2591.99062	0.15625
2590.06206	0.15609
2588.13350	0.15611
2586.20493	0.15635
2584.27637	0.15665
2582.34780	0.15694
2580.41924	0.15727
2578.49067	0.15771
2576.56211	0.15819
2574.63354	0.15858
2572.70498	0.15890
2570.77642	0.15924
2568.84785	0.15951
2566.91929	0.15977
2564.99072	0.16009
2563.06216	0.16037
2561.13359	0.16066
2559.20503	0.16111
2557.27646	0.16165
2555.34790	0.16224
2553.41934	0.16287
2551.49077	0.16355
2549.56221	0.16418
2547.63364	0.16463
2545.70508	0.16510
2543.77651	0.16575
2541.84795	0.16645
2539.91938	0.16709
2537.99082	0.16771
2536.06226	0.16843
2534.13369	0.16911
2532.20513	0.16964
2530.27656	0.17024
2528.34800	0.17097
2526.41943	0.17171
2524.49087	0.17248
2522.56230	0.17330
2520.63374	0.17412
2518.70518	0.17484
2516.77661	0.17557
2514.84805	0.17642
2512.91948	0.17728
2510.99092	0.17804
2509.06235	0.17879
2507.13379	0.17959
2505.20522	0.18045
2503.27666	0.18138
2501.34810	0.18224
2499.41953	0.18294
2497.49097	0.18361
2495.56240	0.18434
2493.63384	0.18514
2491.70527	0.18605
2489.77671	0.18697
2487.84814	0.18792
2485.91958	0.18893
2483.99102	0.18975
2482.06245	0.19043
2480.13389	0.19127
2478.20532	0.19228
2476.27676	0.19335
2474.34819	0.19438
2472.41963	0.19534
2470.49106	0.19623
2468.56250	0.19711
2466.63394	0.19791
2464.70537	0.19863
2462.77681	0.19952
2460.84824	0.20065
2458.91968	0.20176
2456.99111	0.20269
2455.06255	0.20351
2453.13398	0.20435
2451.20542	0.20527
2449.27686	0.20629
2447.34829	0.20736
2445.41973	0.20836
2443.49116	0.20933
2441.56260	0.21035
2439.63403	0.21138
2437.70547	0.21242
2435.77690	0.21348
2433.84834	0.21453
2431.91978	0.21556
2429.99121	0.21656
2428.06265	0.21760
2426.13408	0.21868
2424.20552	0.21959
2422.27695	0.22050
2420.34839	0.22168
2418.41982	0.22293
2416.49126	0.22401
2414.56270	0.22507
2412.63413	0.22621
2410.70557	0.22742
2408.77700	0.22866
2406.84844	0.22990
2404.91987	0.23120
2402.99131	0.23251
2401.06274	0.23367
2399.13418	0.23479
2397.20562	0.23607
2395.27705	0.23737
2393.34849	0.23849
2391.41992	0.23961
2389.49136	0.24094
2387.56279	0.24244
2385.63423	0.24408
2383.70566	0.24600
2381.77710	0.24844
2379.84854	0.25143
2377.91997	0.25467
2375.99141	0.25801
2374.06284	0.26167
2372.13428	0.26583
2370.20571	0.27052
2368.27715	0.27542
2366.34858	0.27970
2364.42002	0.28344
2362.49146	0.28751
2360.56289	0.29101
2358.63433	0.29257
2356.70576	0.29323
2354.77720	0.29305
2352.84863	0.29097
2350.92007	0.28779
2348.99150	0.28567
2347.06294	0.28604
2345.13437	0.28944
2343.20581	0.29441
2341.27725	0.29767
2339.34868	0.29886
2337.42012	0.29942
2335.49155	0.30009
2333.56299	0.30107
2331.63442	0.30269
2329.70586	0.30443
2327.77729	0.30546
2325.84873	0.30597
2323.92017	0.30638
2321.99160	0.30671
2320.06304	0.30696
2318.13447	0.30727
2316.20591	0.30780
2314.27734	0.30864
2312.34878	0.30974
2310.42021	0.31095
2308.49165	0.31212
2306.56309	0.31312
2304.63452	0.31402
2302.70596	0.31514
2300.77739	0.31648
2298.84883	0.31785
2296.92026	0.31928
2294.99170	0.32080
2293.06313	0.32234
2291.13457	0.32384
2289.20601	0.32534
2287.27744	0.32690
2285.34888	0.32862
2283.42031	0.33052
2281.49175	0.33253
2279.56318	0.33457
2277.63462	0.33661
2275.70605	0.33861
2273.77749	0.34058
2271.84893	0.34264
2269.92036	0.34486
2267.99180	0.34719
2266.06323	0.34938
2264.13467	0.35128
2262.20610	0.35313
2260.27754	0.35519
2258.34897	0.35747
2256.42041	0.35971
2254.49185	0.36185
2252.56328	0.36406
2250.63472	0.36627
2248.70615	0.36828
2246.77759	0.37026
2244.84902	0.37238
2242.92046	0.37455
2240.99189	0.37663
2239.06333	0.37872
2237.13477	0.38098
2235.20620	0.38327
2233.27764	0.38552
2231.34907	0.38778
2229.42051	0.39006
2227.49194	0.39237
2225.56338	0.39468
2223.63481	0.39694
2221.70625	0.39905
2219.77769	0.40110
2217.84912	0.40327
2215.92056	0.40558
2213.99199	0.40785
2212.06343	0.40991
2210.13486	0.41196
2208.20630	0.41417
2206.27773	0.41637
2204.34917	0.41841
2202.42061	0.42042
2200.49204	0.42245
2198.56348	0.42442
2196.63491	0.42645
2194.70635	0.42860
2192.77778	0.43069
2190.84922	0.43261
2188.92065	0.43433
2186.99209	0.43591
2185.06353	0.43756
2183.13496	0.43939
2181.20640	0.44118
2179.27783	0.44265
2177.34927	0.44398
2175.42070	0.44550
2173.49214	0.44723
2171.56357	0.44886
2169.63501	0.45026
2167.70645	0.45161
2165.77788	0.45295
2163.84932	0.45418
2161.92075	0.45521
2159.99219	0.45621
2158.06362	0.45727
2156.13506	0.45822
2154.20649	0.45894
2152.27793	0.45959
2150.34937	0.46023
2148.42080	0.46087
2146.49224	0.46148
2144.56367	0.46197
2142.63511	0.46237
2140.70654	0.46270
2138.77798	0.46289
2136.84941	0.46297
2134.92085	0.46302
2132.99229	0.46307
2131.06372	0.46302
2129.13516	0.46279
2127.20659	0.46248
2125.27803	0.46231
2123.34946	0.46213
2121.42090	0.46166
2119.49233	0.46096
2117.56377	0.46021
2115.63521	0.45939
2113.70664	0.45848
2111.77808	0.45760
2109.84951	0.45665
2107.92095	0.45556
2105.99238	0.45444
2104.06382	0.45326
2102.13525	0.45192
2100.20669	0.45049
2098.27812	0.44893
2096.34956	0.44729
2094.42100	0.44574
2092.49243	0.44420
2090.56387	0.44255
2088.63530	0.44075
2086.70674	0.43889
2084.77817	0.43702
2082.84961	0.43502
2080.92104	0.43295
2078.99248	0.43096
2077.06392	0.42889
2075.13535	0.42666
2073.20679	0.42437
2071.27822	0.42208
2069.34966	0.41982
2067.42109	0.41759
2065.49253	0.41534
2063.56396	0.41294
2061.63540	0.41043
2059.70684	0.40790
2057.77827	0.40535
2055.84971	0.40282
2053.92114	0.40027
2051.99258	0.39763
2050.06401	0.39498
2048.13545	0.39238
2046.20688	0.38975
2044.27832	0.38705
2042.34976	0.38429
2040.42119	0.38148
2038.49263	0.37866
2036.56406	0.37583
2034.63550	0.37306
2032.70693	0.37039
2030.77837	0.36769
2028.84980	0.36487
2026.92124	0.36206
2024.99268	0.35922
2023.06411	0.35632
2021.13555	0.35344
2019.20698	0.35069
2017.27842	0.34802
2015.34985	0.34526
2013.42129	0.34251
2011.49272	0.33987
2009.56416	0.33722
2007.63560	0.33445
2005.70703	0.33168
2003.77847	0.32899
2001.84990	0.32626
1999.92134	0.32354
1997.99277	0.32094
1996.06421	0.31846
1994.13564	0.31611
1992.20708	0.31376
1990.27852	0.31124
1988.34995	0.30868
1986.42139	0.30624
1984.49282	0.30384
1982.56426	0.30144
1980.63569	0.29911
1978.70713	0.29687
1976.77856	0.29461
1974.85000	0.29236
1972.92144	0.29016
1970.99287	0.28802
1969.06431	0.28600
1967.13574	0.28406
1965.20718	0.28207
1963.27861	0.28011
1961.35005	0.27819
1959.42148	0.27622
1957.49292	0.27433
1955.56436	0.27253
1953.63579	0.27069
1951.70723	0.26889
1949.77866	0.26731
1947.85010	0.26579
1945.92153	0.26427
1943.99297	0.26291
1942.06440	0.26153
1940.13584	0.25988
1938.20728	0.25830
1936.27871	0.25696
1934.35015	0.25571
1932.42158	0.25454
1930.49302	0.25340
1928.56445	0.25225
1926.63589	0.25112
1924.70732	0.25023
1922.77876	0.24955
1920.85020	0.24880
1918.92163	0.24792
1916.99307	0.24693
1915.06450	0.24586
1913.13594	0.24492
1911.20737	0.24422
1909.27881	0.24356
1907.35024	0.24281
1905.42168	0.24204
1903.49312	0.24139
1901.56455	0.24086
1899.63599	0.24041
1897.70742	0.24005
1895.77886	0.23973
1893.85029	0.23941
1891.92173	0.23908
1889.99316	0.23890
1888.06460	0.23872
1886.13604	0.23848
1884.20747	0.23826
1882.27891	0.23803
1880.35034	0.23780
1878.42178	0.23763
1876.49321	0.23757
1874.56465	0.23752
1872.63608	0.23759
1870.70752	0.23790
1868.77896	0.23850
1866.85039	0.23879
1864.92183	0.23864
1862.99326	0.23863
1861.06470	0.23886
1859.13613	0.23918
1857.20757	0.23949
1855.27900	0.23991
1853.35044	0.24037
1851.42187	0.24096
1849.49331	0.24173
1847.56475	0.24258
1845.63618	0.24344
1843.70762	0.24430
1841.77905	0.24494
1839.85049	0.24537
1837.92192	0.24612
1835.99336	0.24705
1834.06479	0.24800
1832.13623	0.24908
1830.20767	0.25066
1828.27910	0.25217
1826.35054	0.25310
1824.42197	0.25425
1822.49341	0.25554
1820.56484	0.25674
1818.63628	0.25802
1816.70771	0.25957
1814.77915	0.26124
1812.85059	0.26316
1810.92202	0.26535
1808.99346	0.26736
1807.06489	0.26910
1805.13633	0.27087
1803.20776	0.27310
1801.27920	0.27572
1799.35063	0.27853
1797.42207	0.28103
1795.49351	0.28347
1793.56494	0.28640
1791.63638	0.29015
1789.70781	0.29363
1787.77925	0.29619
1785.85068	0.29925
1783.92212	0.30298
1781.99355	0.30707
1780.06499	0.31135
1778.13643	0.31565
1776.20786	0.31968
1774.27930	0.32405
1772.35073	0.32989
1770.42217	0.33615
1768.49360	0.34144
1766.56504	0.34653
1764.63647	0.35182
1762.70791	0.35776
1760.77935	0.36520
1758.85078	0.37222
1756.92222	0.37940
1754.99365	0.38730
1753.06509	0.39450
1751.13652	0.40294
1749.20796	0.41351
1747.27939	0.42414
1745.35083	0.43361
1743.42227	0.44335
1741.49370	0.45385
1739.56514	0.46621
1737.63657	0.47875
1735.70801	0.48998
1733.77944	0.50683
1731.85088	0.52663
1729.92231	0.54200
1727.99375	0.55740
1726.06519	0.57424
1724.13662	0.59286
1722.20806	0.61294
1720.27949	0.63164
1718.35093	0.65355
1716.42236	0.68486
1714.49380	0.71453
1712.56523	0.73923
1710.63667	0.76344
1708.70811	0.78940
1706.77954	0.81875
1704.85098	0.85346
1702.92241	0.88456
1700.99385	0.91571
1699.06528	0.96127
1697.13672	1.00259
1695.20815	1.04499
1693.27959	1.08726
1691.35103	1.12198
1689.42246	1.16141
1687.49390	1.20229
1685.56533	1.24169
1683.63677	1.30154
1681.70820	1.36363
1679.77964	1.40452
1677.85107	1.44344
1675.92251	1.48790
1673.99395	1.54242
1672.06538	1.59141
1670.13682	1.63931
1668.20825	1.69918
1666.27969	1.74772
1664.35112	1.78970
1662.42256	1.84225
1660.49399	1.90105
1658.56543	1.94732
1656.63687	1.98414
1654.70830	2.01641
1652.77974	2.06735
1650.85117	2.12093
1648.92261	2.14376
1646.99404	2.16932
1645.06548	2.19702
1643.13691	2.21617
1641.20835	2.22744
1639.27979	2.23705
1637.35122	2.24352
1635.42266	2.24409
1633.49409	2.23716
1631.56553	2.22357
1629.63696	2.20695
1627.70840	2.18193
1625.77983	2.15227
1623.85127	2.11341
1621.92271	2.06530
1619.99414	2.02168
1618.06558	1.97868
1616.13701	1.91834
1614.20845	1.85732
1612.27988	1.81073
1610.35132	1.76228
1608.42275	1.70982
1606.49419	1.65770
1604.56562	1.60916
1602.63706	1.56235
1600.70850	1.51641
1598.77993	1.47367
1596.85137	1.43354
1594.92280	1.39467
1592.99424	1.35675
1591.06567	1.32169
1589.13711	1.28892
1587.20854	1.25839
1585.27998	1.22997
1583.35142	1.20301
1581.42285	1.17795
1579.49429	1.15629
1577.56572	1.13674
1575.63716	1.11344
1573.70859	1.09287
1571.78003	1.07909
1569.85146	1.06461
1567.92290	1.04837
1565.99434	1.03573
1564.06577	1.02580
1562.13721	1.01821
1560.20864	1.01262
1558.28008	1.00435
1556.35151	0.99657
1554.42295	0.99154
1552.49438	0.98677
1550.56582	0.98133
1548.63726	0.97425
1546.70869	0.96635
1544.78013	0.95760
1542.85156	0.94744
1540.92300	0.93395
1538.99443	0.91320
1537.06587	0.89704
1535.13730	0.88630
1533.20874	0.87335
1531.28018	0.85948
1529.35161	0.84869
1527.42305	0.83834
1525.49448	0.82781
1523.56592	0.81871
1521.63735	0.81012
1519.70879	0.80140
1517.78022	0.79362
1515.85166	0.78501
1513.92310	0.77616
1511.99453	0.76845
1510.06597	0.76161
1508.13740	0.75534
1506.20884	0.74612
1504.28027	0.73707
1502.35171	0.73143
1500.42314	0.72672
1498.49458	0.72201
1496.56602	0.71661
1494.63745	0.71120
1492.70889	0.70708
1490.78032	0.70368
1488.85176	0.69976
1486.92319	0.69568
1484.99463	0.69218
1483.06606	0.68946
1481.13750	0.68740
1479.20894	0.68582
1477.28037	0.68469
1475.35181	0.68389
1473.42324	0.68318
1471.49468	0.68159
1469.56611	0.67917
1467.63755	0.67698
1465.70898	0.67533
1463.78042	0.67372
1461.85186	0.67222
1459.92329	0.67144
1457.99473	0.67116
1456.06616	0.66969
1454.13760	0.66668
1452.20903	0.66380
1450.28047	0.66118
1448.35190	0.65857
1446.42334	0.65571
1444.49478	0.65296
1442.56621	0.65058
1440.63765	0.64851
1438.70908	0.64663
1436.78052	0.64413
1434.85195	0.64099
1432.92339	0.63853
1430.99482	0.63686
1429.06626	0.63543
1427.13770	0.63424
1425.20913	0.63359
1423.28057	0.63333
1421.35200	0.63295
1419.42344	0.63246
1417.49487	0.63179
1415.56631	0.63057
1413.63774	0.62930
1411.70918	0.62838
1409.78062	0.62775
1407.85205	0.62725
1405.92349	0.62704
1403.99492	0.62683
1402.06636	0.62613
1400.13779	0.62515
1398.20923	0.62389
1396.28066	0.62208
1394.35210	0.61949
1392.42354	0.61644
1390.49497	0.61366
1388.56641	0.61112
1386.63784	0.60841
1384.70928	0.60544
1382.78071	0.60259
1380.85215	0.60007
1378.92358	0.59783
1376.99502	0.59599
1375.06646	0.59480
1373.13789	0.59401
1371.20933	0.59313
1369.28076	0.59219
1367.35220	0.59116
1365.42363	0.58997
1363.49507	0.58875
1361.56650	0.58739
1359.63794	0.58590
1357.70937	0.58465
1355.78081	0.58369
1353.85225	0.58268
1351.92368	0.58149
1349.99512	0.58039
1348.06655	0.57951
1346.13799	0.57857
1344.20942	0.57743
1342.28086	0.57639
1340.35229	0.57576
1338.42373	0.57519
1336.49517	0.57425
1334.56660	0.57317
1332.63804	0.57251
1330.70947	0.57236
1328.78091	0.57226
1326.85234	0.57203
1324.92378	0.57199
1322.99521	0.57207
1321.06665	0.57200
1319.13809	0.57190
1317.20952	0.57185
1315.28096	0.57156
1313.35239	0.57091
1311.42383	0.57006
1309.49526	0.56920
1307.56670	0.56840
1305.63813	0.56766
1303.70957	0.56689
1301.78101	0.56603
1299.85244	0.56503
1297.92388	0.56400
1295.99531	0.56305
1294.06675	0.56212
1292.13818	0.56114
1290.20962	0.56015
1288.28105	0.55928
1286.35249	0.55847
1284.42393	0.55756
1282.49536	0.55647
1280.56680	0.55541
1278.63823	0.55452
1276.70967	0.55370
1274.78110	0.55290
1272.85254	0.55214
1270.92397	0.55153
1268.99541	0.55106
1267.06685	0.55047
1265.13828	0.54973
1263.20972	0.54906
1261.28115	0.54854
1259.35259	0.54800
1257.42402	0.54741
1255.49546	0.54697
1253.56689	0.54674
1251.63833	0.54656
1249.70977	0.54633
1247.78120	0.54605
1245.85264	0.54568
1243.92407	0.54504
1241.99551	0.54423
1240.06694	0.54341
1238.13838	0.54235
1236.20981	0.54093
1234.28125	0.53944
1232.35269	0.53813
1230.42412	0.53685
1228.49556	0.53541
1226.56699	0.53394
1224.63843	0.53268
1222.70986	0.53150
1220.78130	0.53025
1218.85273	0.52915
1216.92417	0.52833
1214.99561	0.52763
1213.06704	0.52688
1211.13848	0.52605
1209.20991	0.52523
1207.28135	0.52447
1205.35278	0.52376
1203.42422	0.52307
1201.49565	0.52230
1199.56709	0.52149
1197.63853	0.52078
1195.70996	0.52014
1193.78140	0.51946
1191.85283	0.51880
1189.92427	0.51836
1187.99570	0.51823
1186.06714	0.51823
1184.13857	0.51824
1182.21001	0.51843
1180.28145	0.51880
1178.35288	0.51928
1176.42432	0.52006
1174.49575	0.52116
1172.56719	0.52216
1170.63862	0.52284
1168.71006	0.52338
1166.78149	0.52406
1164.85293	0.52475
1162.92437	0.52530
1160.99580	0.52573
1159.06724	0.52601
1157.13867	0.52585
1155.21011	0.52525
1153.28154	0.52432
1151.35298	0.52285
1149.42441	0.52093
1147.49585	0.51868
1145.56729	0.51609
1143.63872	0.51346
1141.71016	0.51105
1139.78159	0.50895
1137.85303	0.50728
1135.92446	0.50582
1133.99590	0.50452
1132.06733	0.50378
1130.13877	0.50346
1128.21021	0.50294
1126.28164	0.50225
1124.35308	0.50168
1122.42451	0.50125
1120.49595	0.50104
1118.56738	0.50108
1116.63882	0.50114
1114.71025	0.50119
1112.78169	0.50156
1110.85312	0.50234
1108.92456	0.50324
1106.99600	0.50412
1105.06743	0.50496
1103.13887	0.50575
1101.21030	0.50678
1099.28174	0.50837
1097.35317	0.51042
1095.42461	0.51285
1093.49604	0.51621
1091.56748	0.52105
1089.63892	0.52721
1087.71035	0.53437
1085.78179	0.54231
1083.85322	0.55040
1081.92466	0.55783
1079.99609	0.56381
1078.06753	0.56715
1076.13896	0.56716
1074.21040	0.56409
1072.28184	0.55878
1070.35327	0.55234
1068.42471	0.54567
1066.49614	0.53913
1064.56758	0.53283
1062.63901	0.52702
1060.71045	0.52197
1058.78188	0.51757
1056.85332	0.51362
1054.92476	0.51015
1052.99619	0.50726
1051.06763	0.50517
1049.13906	0.50386
1047.21050	0.50307
1045.28193	0.50272
1043.35337	0.50267
1041.42480	0.50284
1039.49624	0.50311
1037.56768	0.50308
1035.63911	0.50257
1033.71055	0.50195
1031.78198	0.50131
1029.85342	0.50040
1027.92485	0.49927
1025.99629	0.49800
1024.06772	0.49685
1022.13916	0.49613
1020.21060	0.49586
1018.28203	0.49587
1016.35347	0.49596
1014.42490	0.49589
1012.49634	0.49565
1010.56777	0.49547
1008.63921	0.49569
1006.71064	0.49648
1004.78208	0.49779
1002.85352	0.49951
1000.92495	0.50180
998.99639	0.50503
997.06782	0.50920
995.13926	0.51362
993.21069	0.51760
991.28213	0.52080
989.35356	0.52295
987.42500	0.52394
985.49644	0.52409
983.56787	0.52401
981.63931	0.52424
979.71074	0.52501
977.78218	0.52648
975.85361	0.52864
973.92505	0.53121
971.99648	0.53414
970.06792	0.53761
968.13936	0.54143
966.21079	0.54522
964.28223	0.54916
962.35366	0.55388
960.42510	0.55943
958.49653	0.56516
956.56797	0.57059
954.63940	0.57624
952.71084	0.58251
950.78228	0.58893
948.85371	0.59502
946.92515	0.60098
944.99658	0.60713
943.06802	0.61362
941.13945	0.62036
939.21089	0.62681
937.28232	0.63254
935.35376	0.63763
933.42520	0.64255
931.49663	0.64822
929.56807	0.65464
927.63950	0.66112
925.71094	0.66765
923.78237	0.67427
921.85381	0.68056
919.92524	0.68636
917.99668	0.69225
916.06812	0.69875
914.13955	0.70612
912.21099	0.71423
910.28242	0.72261
908.35386	0.73101
906.42529	0.74026
904.49673	0.75070
902.56816	0.76050
900.63960	0.76885
898.71104	0.77736
896.78247	0.78698
894.85391	0.79729
892.92534	0.80788
890.99678	0.81875
889.06821	0.82962
887.13965	0.83963
885.21108	0.84936
883.28252	0.86069
881.35396	0.87331
879.42539	0.88638
877.49683	0.89956
875.56826	0.91152
873.63970	0.92249
871.71113	0.93396
869.78257	0.94536
867.85400	0.95558
865.92544	0.96523
863.99687	0.97529
862.06831	0.98606
860.13975	0.99686
858.21118	1.00771
856.28262	1.01843
854.35405	1.02901
852.42549	1.04129
850.49692	1.05472
848.56836	1.06698
846.63979	1.07787
844.71123	1.08757
842.78267	1.09791
840.85410	1.11146
838.92554	1.12493
836.99697	1.13573
835.06841	1.14719
833.13984	1.15881
831.21128	1.16737
829.28271	1.17466
827.35415	1.18598
825.42559	1.20182
823.49702	1.21629
821.56846	1.22720
819.63989	1.23730
817.71133	1.24866
815.78276	1.26288
813.85420	1.27389
811.92563	1.27317
809.99707	1.26936
808.06851	1.27298
806.13994	1.28253
804.21138	1.29419
802.28281	1.30378
800.35425	1.31010
798.42568	1.32486
796.49712	1.35612
794.56855	1.37746
792.63999	1.35475
790.71143	1.31842
788.78286	1.31544
786.85430	1.35107
784.92573	1.38529
782.99717	1.36213
781.06860	1.31720
779.14004	1.29130
777.21147	1.30220
775.28291	1.38414
773.35435	1.46201
771.42578	1.43179
769.49722	1.36895
767.56865	1.31150
765.64009	1.33770
763.71152	1.54644
761.78296	1.69469
759.85439	1.44021
757.92583	1.29844
755.99727	1.32229
754.06870	1.50560
752.14014	1.52476
750.21157	1.31759
748.28301	1.23345
746.35444	1.14906
744.42588	1.06477
742.49731	1.13890
740.56875	1.41138
738.64019	1.32825
736.71162	0.97196
734.78306	0.78061
732.85449	0.72526
730.92593	0.71987
728.99736	0.63508
727.06880	0.56757
725.14023	0.62564
723.21167	0.62283
721.28311	0.45814
719.35454	0.36482
717.42598	0.42087
715.49741	0.48150
713.56885	0.31545
711.64028	0.19297
709.71172	0.21260
707.78315	0.23588
705.85459	0.18067
703.92603	0.09439
701.99746	0.10670
700.06890	0.18650
698.14033	0.21300
696.21177	0.18994
694.28320	0.17905
692.35464	0.16971
690.42607	0.17427
688.49751	0.16845
686.56895	0.17135
684.64038	0.22071
682.71182	0.20873
680.78325	0.16012
678.85469	0.23926
676.92612	0.50533
674.99756	0.55042
673.06899	0.26972
671.14043	0.07792
669.21187	0.07105
667.28330	0.19209
665.35474	0.27603
663.42617	0.26327
661.49761	0.24289
659.56904	0.23399
657.64048	0.27114
655.71191	0.36379
653.78335	0.35975
651.85479	0.21155
649.92622	0.12510
647.99766	0.16851
646.06909	0.32091
644.14053	0.47348
642.21196	0.37550
640.28340	0.23905
638.35483	0.20095
636.42627	0.21738
634.49771	0.30133
632.56914	0.40392
630.64058	0.28840
628.71201	0.11070
626.78345	0.02104
624.85488	0.09108
622.92632	0.24564
620.99775	0.51130
619.06919	0.67907
617.14062	0.37676
615.21206	0.20103
613.28350	0.16465
611.35493	0.14140
609.42637	0.09518
607.49780	0.10104
605.56924	0.21889
603.64067	0.42859
601.71211	0.45155
599.78354	0.36128
597.85498	0.27381
595.92642	0.20629
593.99785	0.24873
592.06929	0.31734
590.14072	0.27420
588.21216	0.21032
586.28359	0.24723
584.35503	0.31088
582.42646	0.24706
580.49790	0.09541
578.56934	-0.01145
576.64077	0.01609
574.71221	0.17480
572.78364	0.37406
570.85508	0.48318
568.92651	0.35957
566.99795	0.24649
565.06938	0.20285
563.14082	0.16204
561.21226	0.13318
559.28369	0.13767
557.35513	0.12168
555.42656	0.11965
553.49800	0.15492
551.56943	0.18912
549.64087	0.22031
547.71230	0.20917
545.78374	0.16887
543.85518	0.15926
541.92661	0.19090
539.99805	0.27533
538.06948	0.34200
536.14092	0.31798
534.21235	0.30532
532.28379	0.24094
530.35522	0.14862
528.42666	0.15350
526.49810	0.20462
524.56953	0.21321
522.64097	0.21846
520.71240	0.23839
518.78384	0.23154
516.85527	0.17289
514.92671	0.11460
512.99814	0.11960
511.06958	0.14705
509.14102	0.12263
507.21245	0.11982
505.28389	0.15525
503.35532	0.14541
501.42676	0.11956
499.49819	0.12069
