3997.91411	0.07617
3995.98555	0.07674
3994.05698	0.07772
3992.12842	0.07835
3990.19985	0.07842
3988.27129	0.07831
3986.34272	0.07861
3984.41416	0.07923
3982.48560	0.07957
3980.55703	0.07952
3978.62847	0.07948
3976.69990	0.07994
3974.77134	0.08072
3972.84277	0.08112
3970.91421	0.08112
3968.98564	0.08109
3967.05708	0.08083
3965.12852	0.08040
3963.19995	0.08048
3961.27139	0.08098
3959.34282	0.08126
3957.41426	0.08156
3955.48569	0.08200
3953.55713	0.08204
3951.62856	0.08219
3949.70000	0.08323
3947.77144	0.08429
3945.84287	0.08425
3943.91431	0.08396
3941.98574	0.08402
3940.05718	0.08341
3938.12861	0.08238
3936.20005	0.08202
3934.27148	0.08250
3932.34292	0.08360
3930.41436	0.08450
3928.48579	0.08403
3926.55723	0.08329
3924.62866	0.08386
3922.70010	0.08432
3920.77153	0.08359
3918.84297	0.08347
3916.91440	0.08427
3914.98584	0.08398
3913.05728	0.08243
3911.12871	0.08130
3909.20015	0.08097
3907.27158	0.08150
3905.34302	0.08355
3903.41445	0.08683
3901.48589	0.08906
3899.55732	0.08883
3897.62876	0.08672
3895.70020	0.08420
3893.77163	0.08366
3891.84307	0.08533
3889.91450	0.08620
3887.98594	0.08543
3886.05737	0.08583
3884.12881	0.08706
3882.20024	0.08732
3880.27168	0.08718
3878.34312	0.08588
3876.41455	0.08439
3874.48599	0.08536
3872.55742	0.08805
3870.62886	0.09035
3868.70029	0.09111
3866.77173	0.09018
3864.84316	0.08983
3862.91460	0.09018
3860.98604	0.08912
3859.05747	0.08779
3857.12891	0.08825
3855.20034	0.09095
3853.27178	0.09574
3851.34321	0.09757
3849.41465	0.09353
3847.48608	0.08977
3845.55752	0.08888
3843.62896	0.09084
3841.70039	0.09419
3839.77183	0.09724
3837.84326	0.09889
3835.91470	0.09820
3833.98613	0.09680
3832.05757	0.09621
3830.12900	0.09580
3828.20044	0.09553
3826.27187	0.09634
3824.34331	0.09800
3822.41475	0.10076
3820.48618	0.10489
3818.55762	0.10655
3816.62905	0.10589
3814.70049	0.10465
3812.77192	0.10239
3810.84336	0.10130
3808.91479	0.10253
3806.98623	0.10556
3805.05767	0.10860
3803.12910	0.11102
3801.20054	0.11388
3799.27197	0.11483
3797.34341	0.11384
3795.41484	0.11351
3793.48628	0.11299
3791.55771	0.11249
3789.62915	0.11312
3787.70059	0.11454
3785.77202	0.11647
3783.84346	0.11865
3781.91489	0.12052
3779.98633	0.12257
3778.05776	0.12446
3776.12920	0.12496
3774.20063	0.12528
3772.27207	0.12697
3770.34351	0.13031
3768.41494	0.13375
3766.48638	0.13559
3764.55781	0.13674
3762.62925	0.13817
3760.70068	0.14104
3758.77212	0.14537
3756.84355	0.14863
3754.91499	0.15066
3752.98643	0.15447
3751.05786	0.16127
3749.12930	0.16714
3747.20073	0.16883
3745.27217	0.17082
3743.34360	0.17485
3741.41504	0.17759
3739.48647	0.17959
3737.55791	0.18403
3735.62935	0.19233
3733.70078	0.20088
3731.77222	0.20400
3729.84365	0.20469
3727.91509	0.20731
3725.98652	0.21313
3724.05796	0.22057
3722.12939	0.22726
3720.20083	0.23286
3718.27227	0.23766
3716.34370	0.24268
3714.41514	0.24976
3712.48657	0.26156
3710.55801	0.27829
3708.62944	0.29264
3706.70088	0.30211
3704.77231	0.31182
3702.84375	0.32490
3700.91519	0.34212
3698.98662	0.36004
3697.05806	0.37694
3695.12949	0.39553
3693.20093	0.41596
3691.27236	0.43910
3689.34380	0.46863
3687.41523	0.50188
3685.48667	0.52940
3683.55811	0.55394
3681.62954	0.58208
3679.70098	0.61523
3677.77241	0.65109
3675.84385	0.69290
3673.91528	0.74544
3671.98672	0.78792
3670.05815	0.82744
3668.12959	0.88002
3666.20103	0.92603
3664.27246	0.96478
3662.34390	1.00803
3660.41533	1.05587
3658.48677	1.10354
3656.55820	1.15420
3654.62964	1.21008
3652.70107	1.25771
3650.77251	1.30111
3648.84395	1.36045
3646.91538	1.42821
3644.98682	1.47549
3643.05825	1.51265
3641.12969	1.55220
3639.20112	1.59613
3637.27256	1.64106
3635.34399	1.68630
3633.41543	1.73243
3631.48687	1.77569
3629.55830	1.81948
3627.62974	1.87452
3625.70117	1.92299
3623.77261	1.95512
3621.84404	1.98770
3619.91548	2.02732
3617.98691	2.07527
3616.05835	2.12031
3614.12979	2.15741
3612.20122	2.19577
3610.27266	2.23512
3608.34409	2.27660
3606.41553	2.31924
3604.48696	2.35614
3602.55840	2.39005
3600.62983	2.42944
3598.70127	2.47309
3596.77271	2.51503
3594.84414	2.55688
3592.91558	2.59963
3590.98701	2.63906
3589.05845	2.67596
3587.12988	2.72042
3585.20132	2.76769
3583.27275	2.80670
3581.34419	2.84424
3579.41562	2.88589
3577.48706	2.92903
3575.55850	2.97099
3573.62993	3.01402
3571.70137	3.05758
3569.77280	3.10133
3567.84424	3.14821
3565.91567	3.20165
3563.98711	3.25099
3562.05854	3.29106
3560.12998	3.33145
3558.20142	3.37565
3556.27285	3.42101
3554.34429	3.46463
3552.41572	3.50897
3550.48716	3.55460
3548.55859	3.60053
3546.63003	3.64910
3544.70146	3.70166
3542.77290	3.75222
3540.84434	3.79932
3538.91577	3.84788
3536.98721	3.89573
3535.05864	3.94155
3533.13008	3.98806
3531.20151	4.03796
3529.27295	4.08916
3527.34438	4.13928
3525.41582	4.18756
3523.48726	4.23226
3521.55869	4.27709
3519.63013	4.32693
3517.70156	4.37929
3515.77300	4.42805
3513.84443	4.47415
3511.91587	4.52034
3509.98730	4.56614
3508.05874	4.61234
3506.13018	4.66149
3504.20161	4.71165
3502.27305	4.76073
3500.34448	4.81245
3498.41592	4.86287
3496.48735	4.90768
3494.55879	4.95371
3492.63022	5.00604
3490.70166	5.05909
3488.77310	5.10813
3486.84453	5.15662
3484.91597	5.20723
3482.98740	5.25905
3481.05884	5.30900
3479.13027	5.35255
3477.20171	5.39455
3475.27314	5.44226
3473.34458	5.49655
3471.41602	5.55077
3469.48745	5.59720
3467.55889	5.64147
3465.63032	5.69017
3463.70176	5.74319
3461.77319	5.79607
3459.84463	5.85030
3457.91606	5.91204
3455.98750	5.98050
3454.05894	6.04740
3452.13037	6.09949
3450.20181	6.13509
3448.27324	6.17007
3446.34468	6.21262
3444.41611	6.24732
3442.48755	6.28550
3440.55898	6.34302
3438.63042	6.39874
3436.70186	6.44565
3434.77329	6.49776
3432.84473	6.55974
3430.91616	6.62549
3428.98760	6.67546
3427.05903	6.70209
3425.13047	6.74040
3423.20190	6.80121
3421.27334	6.86784
3419.34478	6.93025
3417.41621	6.97895
3415.48765	7.00723
3413.55908	7.02175
3411.63052	7.05683
3409.70195	7.12199
3407.77339	7.20920
3405.84482	7.30263
3403.91626	7.36182
3401.98770	7.35712
3400.05913	7.33157
3398.13057	7.34580
3396.20200	7.39459
3394.27344	7.45297
3392.34487	7.52249
3390.41631	7.60871
3388.48774	7.67552
3386.55918	7.72929
3384.63062	7.79592
3382.70205	7.85835
3380.77349	7.89484
3378.84492	7.89994
3376.91636	7.90409
3374.98779	7.93404
3373.05923	7.98323
3371.13066	7.99778
3369.20210	7.97556
3367.27354	7.95097
3365.34497	7.95500
3363.41641	7.99036
3361.48784	8.01822
3359.55928	8.04694
3357.63071	8.09561
3355.70215	8.13825
3353.77358	8.12737
3351.84502	8.10088
3349.91646	8.12380
3347.98789	8.19198
3346.05933	8.21040
3344.13076	8.13164
3342.20220	8.05214
3340.27363	8.07074
3338.34507	8.16456
3336.41650	8.19405
3334.48794	8.16412
3332.55937	8.17041
3330.63081	8.23859
3328.70225	8.31120
3326.77368	8.34454
3324.84512	8.36335
3322.91655	8.34191
3320.98799	8.28677
3319.05942	8.27928
3317.13086	8.37395
3315.20229	8.43680
3313.27373	8.36482
3311.34517	8.25858
3309.41660	8.20485
3307.48804	8.25275
3305.55947	8.40852
3303.63091	8.51206
3301.70234	8.38121
3299.77378	8.23393
3297.84521	8.23226
3295.91665	8.29055
3293.98809	8.32542
3292.05952	8.36531
3290.13096	8.45924
3288.20239	8.55936
3286.27383	8.53694
3284.34526	8.39861
3282.41670	8.34591
3280.48813	8.42553
3278.55957	8.54959
3276.63101	8.60719
3274.70244	8.55375
3272.77388	8.54721
3270.84531	8.64500
3268.91675	8.69773
3266.98818	8.66129
3265.05962	8.58924
3263.13105	8.50575
3261.20249	8.52016
3259.27393	8.60788
3257.34536	8.64118
3255.41680	8.60560
3253.48823	8.55188
3251.55967	8.52177
3249.63110	8.48796
3247.70254	8.42987
3245.77397	8.36336
3243.84541	8.37683
3241.91685	8.49022
3239.98828	8.55692
3238.05972	8.52507
3236.13115	8.47908
3234.20259	8.47210
3232.27402	8.47881
3230.34546	8.43082
3228.41689	8.35496
3226.48833	8.31864
3224.55977	8.31369
3222.63120	8.32265
3220.70264	8.31255
3218.77407	8.26594
3216.84551	8.22265
3214.91694	8.18294
3212.98838	8.15803
3211.05981	8.20178
3209.13125	8.24186
3207.20269	8.16737
3205.27412	8.06581
3203.34556	8.02788
3201.41699	8.01616
3199.48843	7.97461
3197.55986	7.93838
3195.63130	7.94799
3193.70273	7.95567
3191.77417	7.91188
3189.84561	7.79952
3187.91704	7.64905
3185.98848	7.54697
3184.05991	7.53504
3182.13135	7.55305
3180.20278	7.51047
3178.27422	7.42002
3176.34565	7.36048
3174.41709	7.32514
3172.48853	7.27751
3170.55996	7.22959
3168.63140	7.16677
3166.70283	7.08966
3164.77427	7.03090
3162.84570	6.98210
3160.91714	6.91782
3158.98857	6.83192
3157.06001	6.74469
3155.13145	6.66821
3153.20288	6.59381
3151.27432	6.52326
3149.34575	6.45744
3147.41719	6.40107
3145.48862	6.34236
3143.56006	6.26567
3141.63149	6.18979
3139.70293	6.11542
3137.77437	6.03871
3135.84580	5.97158
3133.91724	5.90744
3131.98867	5.83619
3130.06011	5.76429
3128.13154	5.69674
3126.20298	5.62405
3124.27441	5.54189
3122.34585	5.46195
3120.41729	5.39000
3118.48872	5.31975
3116.56016	5.25084
3114.63159	5.18273
3112.70303	5.11340
3110.77446	5.04296
3108.84590	4.96996
3106.91733	4.89868
3104.98877	4.83150
3103.06021	4.76458
3101.13164	4.69521
3099.20308	4.62630
3097.27451	4.56014
3095.34595	4.49447
3093.41738	4.42947
3091.48882	4.36585
3089.56025	4.30231
3087.63169	4.23717
3085.70312	4.17079
3083.77456	4.10653
3081.84600	4.04545
3079.91743	3.98555
3077.98887	3.92675
3076.06030	3.86807
3074.13174	3.80823
3072.20317	3.74852
3070.27461	3.68941
3068.34604	3.63125
3066.41748	3.57352
3064.48892	3.51506
3062.56035	3.45735
3060.63179	3.40259
3058.70322	3.34974
3056.77466	3.29582
3054.84609	3.24035
3052.91753	3.18617
3050.98896	3.13470
3049.06040	3.08360
3047.13184	3.03199
3045.20327	2.98086
3043.27471	2.93074
3041.34614	2.88192
3039.41758	2.83423
3037.48901	2.78785
3035.56045	2.74248
3033.63188	2.69736
3031.70332	2.65191
3029.77476	2.60581
3027.84619	2.55975
3025.91763	2.51482
3023.98906	2.47115
3022.06050	2.42784
3020.13193	2.38503
3018.20337	2.34377
3016.27480	2.30346
3014.34624	2.26334
3012.41768	2.22403
3010.48911	2.18570
3008.56055	2.14816
3006.63198	2.11156
3004.70342	2.07535
3002.77485	2.03909
3000.84629	2.00371
2998.91772	1.96981
2996.98916	1.93682
2995.06060	1.90402
2993.13203	1.87169
2991.20347	1.84030
2989.27490	1.80927
2987.34634	1.77831
2985.41777	1.74835
2983.48921	1.71998
2981.56064	1.69248
2979.63208	1.66474
2977.70352	1.63670
2975.77495	1.60927
2973.84639	1.58308
2971.91782	1.55791
2969.98926	1.53293
2968.06069	1.50768
2966.13213	1.48251
2964.20356	1.45776
2962.27500	1.43313
2960.34644	1.40845
2958.41787	1.38392
2956.48931	1.35977
2954.56074	1.33619
2952.63218	1.31278
2950.70361	1.28932
2948.77505	1.26611
2946.84648	1.24321
2944.91792	1.22094
2942.98936	1.19996
2941.06079	1.17980
2939.13223	1.15926
2937.20366	1.13857
2935.27510	1.11832
2933.34653	1.09825
2931.41797	1.07846
2929.48940	1.05902
2927.56084	1.03983
2925.63228	1.02104
2923.70371	1.00292
2921.77515	0.98531
2919.84658	0.96777
2917.91802	0.95028
2915.98945	0.93297
2914.06089	0.91593
2912.13232	0.89961
2910.20376	0.88432
2908.27520	0.86944
2906.34663	0.85439
2904.41807	0.83965
2902.48950	0.82586
2900.56094	0.81250
2898.63237	0.79883
2896.70381	0.78523
2894.77524	0.77228
2892.84668	0.75997
2890.91812	0.74807
2888.98955	0.73626
2887.06099	0.72465
2885.13242	0.71367
2883.20386	0.70321
2881.27529	0.69321
2879.34673	0.68354
2877.41816	0.67363
2875.48960	0.66315
2873.56104	0.65241
2871.63247	0.64163
2869.70391	0.63068
2867.77534	0.61943
2865.84678	0.60798
2863.91821	0.59640
2861.98965	0.58488
2860.06108	0.57394
2858.13252	0.56376
2856.20396	0.55408
2854.27539	0.54463
2852.34683	0.53538
2850.41826	0.52644
2848.48970	0.51774
2846.56113	0.50921
2844.63257	0.50118
2842.70400	0.49406
2840.77544	0.48769
2838.84687	0.48143
2836.91831	0.47504
2834.98975	0.46868
2833.06118	0.46247
2831.13262	0.45633
2829.20405	0.45021
2827.27549	0.44409
2825.34692	0.43794
2823.41836	0.43183
2821.48979	0.42582
2819.56123	0.41981
2817.63267	0.41371
2815.70410	0.40764
2813.77554	0.40180
2811.84697	0.39618
2809.91841	0.39067
2807.98984	0.38523
2806.06128	0.37993
2804.13271	0.37468
2802.20415	0.36931
2800.27559	0.36401
2798.34702	0.35904
2796.41846	0.35430
2794.48989	0.34960
2792.56133	0.34488
2790.63276	0.34012
2788.70420	0.33538
2786.77563	0.33077
2784.84707	0.32633
2782.91851	0.32208
2780.98994	0.31803
2779.06138	0.31400
2777.13281	0.30985
2775.20425	0.30573
2773.27568	0.30180
2771.34712	0.29800
2769.41855	0.29422
2767.48999	0.29052
2765.56143	0.28690
2763.63286	0.28339
2761.70430	0.27997
2759.77573	0.27650
2757.84717	0.27311
2755.91860	0.27000
2753.99004	0.26694
2752.06147	0.26385
2750.13291	0.26083
2748.20435	0.25786
2746.27578	0.25490
2744.34722	0.25203
2742.41865	0.24921
2740.49009	0.24649
2738.56152	0.24386
2736.63296	0.24119
2734.70439	0.23859
2732.77583	0.23616
2730.84727	0.23377
2728.91870	0.23131
2726.99014	0.22899
2725.06157	0.22688
2723.13301	0.22478
2721.20444	0.22252
2719.27588	0.22027
2717.34731	0.21818
2715.41875	0.21618
2713.49019	0.21427
2711.56162	0.21240
2709.63306	0.21050
2707.70449	0.20864
2705.77593	0.20699
2703.84736	0.20552
2701.91880	0.20398
2699.99023	0.20232
2698.06167	0.20070
2696.13311	0.19910
2694.20454	0.19747
2692.27598	0.19591
2690.34741	0.19455
2688.41885	0.19330
2686.49028	0.19194
2684.56172	0.19058
2682.63315	0.18934
2680.70459	0.18809
2678.77603	0.18689
2676.84746	0.18579
2674.91890	0.18464
2672.99033	0.18346
2671.06177	0.18234
2669.13320	0.18123
2667.20464	0.18012
2665.27607	0.17914
2663.34751	0.17824
2661.41895	0.17722
2659.49038	0.17612
2657.56182	0.17522
2655.63325	0.17456
2653.70469	0.17400
2651.77612	0.17341
2649.84756	0.17269
2647.91899	0.17194
2645.99043	0.17115
2644.06187	0.17037
2642.13330	0.16971
2640.20474	0.16908
2638.27617	0.16842
2636.34761	0.16790
2634.41904	0.16757
2632.49048	0.16720
2630.56191	0.16672
2628.63335	0.16628
2626.70479	0.16592
2624.77622	0.16553
2622.84766	0.16511
2620.91909	0.16472
2618.99053	0.16440
2617.06196	0.16414
2615.13340	0.16388
2613.20483	0.16362
2611.27627	0.16337
2609.34771	0.16318
2607.41914	0.16306
2605.49058	0.16298
2603.56201	0.16288
2601.63345	0.16280
2599.70488	0.16280
2597.77632	0.16285
2595.84775	0.16284
2593.91919	0.16277
2591.99062	0.16276
2590.06206	0.16287
2588.13350	0.16307
2586.20493	0.16337
2584.27637	0.16370
2582.34780	0.16389
2580.41924	0.16393
2578.49067	0.16399
2576.56211	0.16425
2574.63354	0.16465
2572.70498	0.16502
2570.77642	0.16532
2568.84785	0.16564
2566.91929	0.16599
2564.99072	0.16631
2563.06216	0.16662
2561.13359	0.16704
2559.20503	0.16755
2557.27646	0.16810
2555.34790	0.16857
2553.41934	0.16888
2551.49077	0.16926
2549.56221	0.16986
2547.63364	0.17049
2545.70508	0.17108
2543.77651	0.17170
2541.84795	0.17228
2539.91938	0.17279
2537.99082	0.17341
2536.06226	0.17412
2534.13369	0.17479
2532.20513	0.17534
2530.27656	0.17587
2528.34800	0.17652
2526.41943	0.17722
2524.49087	0.17789
2522.56230	0.17863
2520.63374	0.17949
2518.70518	0.18028
2516.77661	0.18084
2514.84805	0.18133
2512.91948	0.18210
2510.99092	0.18307
2509.06235	0.18400
2507.13379	0.18482
2505.20522	0.18551
2503.27666	0.18614
2501.34810	0.18692
2499.41953	0.18785
2497.49097	0.18876
2495.56240	0.18956
2493.63384	0.19028
2491.70527	0.19101
2489.77671	0.19187
2487.84814	0.19278
2485.91958	0.19368
2483.99102	0.19454
2482.06245	0.19542
2480.13389	0.19634
2478.20532	0.19716
2476.27676	0.19793
2474.34819	0.19880
2472.41963	0.19968
2470.49106	0.20050
2468.56250	0.20135
2466.63394	0.20231
2464.70537	0.20331
2462.77681	0.20424
2460.84824	0.20515
2458.91968	0.20613
2456.99111	0.20713
2455.06255	0.20808
2453.13398	0.20899
2451.20542	0.20991
2449.27686	0.21085
2447.34829	0.21178
2445.41973	0.21272
2443.49116	0.21366
2441.56260	0.21456
2439.63403	0.21555
2437.70547	0.21663
2435.77690	0.21768
2433.84834	0.21871
2431.91978	0.21970
2429.99121	0.22064
2428.06265	0.22163
2426.13408	0.22274
2424.20552	0.22391
2422.27695	0.22502
2420.34839	0.22611
2418.41982	0.22720
2416.49126	0.22821
2414.56270	0.22920
2412.63413	0.23031
2410.70557	0.23161
2408.77700	0.23295
2406.84844	0.23416
2404.91987	0.23529
2402.99131	0.23639
2401.06274	0.23745
2399.13418	0.23852
2397.20562	0.23970
2395.27705	0.24099
2393.34849	0.24236
2391.41992	0.24371
2389.49136	0.24511
2387.56279	0.24698
2385.63423	0.24967
2383.70566	0.25332
2381.77710	0.25796
2379.84854	0.26339
2377.91997	0.26954
2375.99141	0.27668
2374.06284	0.28502
2372.13428	0.29444
2370.20571	0.30471
2368.27715	0.31533
2366.34858	0.32532
2364.42002	0.33331
2362.49146	0.33956
2360.56289	0.34498
2358.63433	0.34748
2356.70576	0.34461
2354.77720	0.33758
2352.84863	0.32911
2350.92007	0.32064
2348.99150	0.31532
2347.06294	0.31599
2345.13437	0.32352
2343.20581	0.33401
2341.27725	0.33988
2339.34868	0.34067
2337.42012	0.34019
2335.49155	0.33995
2333.56299	0.33958
2331.63442	0.33963
2329.70586	0.34031
2327.77729	0.34053
2325.84873	0.33971
2323.92017	0.33824
2321.99160	0.33643
2320.06304	0.33418
2318.13447	0.33180
2316.20591	0.32992
2314.27734	0.32897
2312.34878	0.32894
2310.42021	0.32908
2308.49165	0.32862
2306.56309	0.32772
2304.63452	0.32701
2302.70596	0.32699
2300.77739	0.32760
2298.84883	0.32834
2296.92026	0.32901
2294.99170	0.32983
2293.06313	0.33081
2291.13457	0.33173
2289.20601	0.33262
2287.27744	0.33357
2285.34888	0.33457
2283.42031	0.33588
2281.49175	0.33781
2279.56318	0.34017
2277.63462	0.34251
2275.70605	0.34469
2273.77749	0.34685
2271.84893	0.34895
2269.92036	0.35094
2267.99180	0.35295
2266.06323	0.35504
2264.13467	0.35713
2262.20610	0.35914
2260.27754	0.36112
2258.34897	0.36309
2256.42041	0.36510
2254.49185	0.36714
2252.56328	0.36908
2250.63472	0.37101
2248.70615	0.37309
2246.77759	0.37532
2244.84902	0.37756
2242.92046	0.37967
2240.99189	0.38173
2239.06333	0.38386
2237.13477	0.38609
2235.20620	0.38828
2233.27764	0.39041
2231.34907	0.39263
2229.42051	0.39495
2227.49194	0.39726
2225.56338	0.39951
2223.63481	0.40178
2221.70625	0.40404
2219.77769	0.40623
2217.84912	0.40834
2215.92056	0.41046
2213.99199	0.41268
2212.06343	0.41493
2210.13486	0.41711
2208.20630	0.41929
2206.27773	0.42143
2204.34917	0.42341
2202.42061	0.42542
2200.49204	0.42754
2198.56348	0.42962
2196.63491	0.43162
2194.70635	0.43361
2192.77778	0.43561
2190.84922	0.43751
2188.92065	0.43927
2186.99209	0.44103
2185.06353	0.44285
2183.13496	0.44464
2181.20640	0.44631
2179.27783	0.44792
2177.34927	0.44957
2175.42070	0.45126
2173.49214	0.45286
2171.56357	0.45430
2169.63501	0.45559
2167.70645	0.45683
2165.77788	0.45812
2163.84932	0.45948
2161.92075	0.46077
2159.99219	0.46183
2158.06362	0.46275
2156.13506	0.46371
2154.20649	0.46466
2152.27793	0.46546
2150.34937	0.46612
2148.42080	0.46680
2146.49224	0.46749
2144.56367	0.46796
2142.63511	0.46835
2140.70654	0.46884
2138.77798	0.46919
2136.84941	0.46928
2134.92085	0.46929
2132.99229	0.46926
2131.06372	0.46915
2129.13516	0.46900
2127.20659	0.46874
2125.27803	0.46836
2123.34946	0.46794
2121.42090	0.46757
2119.49233	0.46712
2117.56377	0.46656
2115.63521	0.46591
2113.70664	0.46514
2111.77808	0.46425
2109.84951	0.46329
2107.92095	0.46227
2105.99238	0.46115
2104.06382	0.45989
2102.13525	0.45850
2100.20669	0.45709
2098.27812	0.45570
2096.34956	0.45432
2094.42100	0.45282
2092.49243	0.45118
2090.56387	0.44950
2088.63530	0.44771
2086.70674	0.44581
2084.77817	0.44391
2082.84961	0.44203
2080.92104	0.44003
2078.99248	0.43793
2077.06392	0.43581
2075.13535	0.43363
2073.20679	0.43141
2071.27822	0.42928
2069.34966	0.42715
2067.42109	0.42484
2065.49253	0.42238
2063.56396	0.41978
2061.63540	0.41719
2059.70684	0.41472
2057.77827	0.41218
2055.84971	0.40959
2053.92114	0.40706
2051.99258	0.40446
2050.06401	0.40174
2048.13545	0.39906
2046.20688	0.39644
2044.27832	0.39379
2042.34976	0.39111
2040.42119	0.38831
2038.49263	0.38544
2036.56406	0.38262
2034.63550	0.37982
2032.70693	0.37702
2030.77837	0.37421
2028.84980	0.37139
2026.92124	0.36861
2024.99268	0.36586
2023.06411	0.36307
2021.13555	0.36029
2019.20698	0.35759
2017.27842	0.35494
2015.34985	0.35204
2013.42129	0.34896
2011.49272	0.34608
2009.56416	0.34346
2007.63560	0.34084
2005.70703	0.33804
2003.77847	0.33515
2001.84990	0.33230
1999.92134	0.32962
1997.99277	0.32704
1996.06421	0.32454
1994.13564	0.32224
1992.20708	0.32005
1990.27852	0.31759
1988.34995	0.31487
1986.42139	0.31210
1984.49282	0.30944
1982.56426	0.30697
1980.63569	0.30461
1978.70713	0.30230
1976.77856	0.29997
1974.85000	0.29767
1972.92144	0.29542
1970.99287	0.29329
1969.06431	0.29141
1967.13574	0.28959
1965.20718	0.28742
1963.27861	0.28506
1961.35005	0.28295
1959.42148	0.28107
1957.49292	0.27930
1955.56436	0.27754
1953.63579	0.27571
1951.70723	0.27385
1949.77866	0.27208
1947.85010	0.27048
1945.92153	0.26918
1943.99297	0.26818
1942.06440	0.26695
1940.13584	0.26504
1938.20728	0.26305
1936.27871	0.26145
1934.35015	0.26012
1932.42158	0.25892
1930.49302	0.25771
1928.56445	0.25654
1926.63589	0.25550
1924.70732	0.25480
1922.77876	0.25422
1920.85020	0.25326
1918.92163	0.25226
1916.99307	0.25129
1915.06450	0.25001
1913.13594	0.24884
1911.20737	0.24820
1909.27881	0.24780
1907.35024	0.24713
1905.42168	0.24621
1903.49312	0.24539
1901.56455	0.24472
1899.63599	0.24411
1897.70742	0.24371
1895.77886	0.24351
1893.85029	0.24325
1891.92173	0.24300
1889.99316	0.24309
1888.06460	0.24286
1886.13604	0.24212
1884.20747	0.24154
1882.27891	0.24122
1880.35034	0.24105
1878.42178	0.24092
1876.49321	0.24085
1874.56465	0.24082
1872.63608	0.24106
1870.70752	0.24198
1868.77896	0.24338
1866.85039	0.24364
1864.92183	0.24266
1862.99326	0.24201
1861.06470	0.24206
1859.13613	0.24245
1857.20757	0.24283
1855.27900	0.24321
1853.35044	0.24363
1851.42187	0.24422
1849.49331	0.24507
1847.56475	0.24617
1845.63618	0.24756
1843.70762	0.24885
1841.77905	0.24911
1839.85049	0.24889
1837.92192	0.24945
1835.99336	0.25048
1834.06479	0.25152
1832.13623	0.25291
1830.20767	0.25499
1828.27910	0.25661
1826.35054	0.25737
1824.42197	0.25839
1822.49341	0.25921
1820.56484	0.25994
1818.63628	0.26114
1816.70771	0.26277
1814.77915	0.26447
1812.85059	0.26653
1810.92202	0.26896
1808.99346	0.27102
1807.06489	0.27271
1805.13633	0.27458
1803.20776	0.27715
1801.27920	0.28026
1799.35063	0.28326
1797.42207	0.28553
1795.49351	0.28789
1793.56494	0.29124
1791.63638	0.29527
1789.70781	0.29804
1787.77925	0.29980
1785.85068	0.30272
1783.92212	0.30662
1781.99355	0.31081
1780.06499	0.31512
1778.13643	0.31938
1776.20786	0.32359
1774.27930	0.32864
1772.35073	0.33529
1770.42217	0.34145
1768.49360	0.34596
1766.56504	0.35043
1764.63647	0.35551
1762.70791	0.36168
1760.77935	0.36939
1758.85078	0.37646
1756.92222	0.38361
1754.99365	0.39128
1753.06509	0.39858
1751.13652	0.40787
1749.20796	0.41914
1747.27939	0.42928
1745.35083	0.43797
1743.42227	0.44735
1741.49370	0.45781
1739.56514	0.47015
1737.63657	0.48266
1735.70801	0.49419
1733.77944	0.51138
1731.85088	0.53060
1729.92231	0.54523
1727.99375	0.56026
1726.06519	0.57695
1724.13662	0.59573
1722.20806	0.61617
1720.27949	0.63558
1718.35093	0.65892
1716.42236	0.69171
1714.49380	0.72124
1712.56523	0.74506
1710.63667	0.76898
1708.70811	0.79535
1706.77954	0.82565
1704.85098	0.86154
1702.92241	0.89370
1700.99385	0.92603
1699.06528	0.97320
1697.13672	1.01595
1695.20815	1.05912
1693.27959	1.10142
1691.35103	1.13651
1689.42246	1.17779
1687.49390	1.22185
1685.56533	1.26544
1683.63677	1.33099
1681.70820	1.39684
1679.77964	1.43880
1677.85107	1.47953
1675.92251	1.52745
1673.99395	1.58671
1672.06538	1.63983
1670.13682	1.69167
1668.20825	1.75724
1666.27969	1.81162
1664.35112	1.86007
1662.42256	1.92094
1660.49399	1.98837
1658.56543	2.04171
1656.63687	2.08656
1654.70830	2.12882
1652.77974	2.18908
1650.85117	2.24169
1648.92261	2.26073
1646.99404	2.28754
1645.06548	2.31551
1643.13691	2.33054
1641.20835	2.33745
1639.27979	2.34568
1637.35122	2.35276
1635.42266	2.35394
1633.49409	2.34669
1631.56553	2.33227
1629.63696	2.31278
1627.70840	2.28035
1625.77983	2.24461
1623.85127	2.20291
1621.92271	2.15178
1619.99414	2.10476
1618.06558	2.05870
1616.13701	1.99431
1614.20845	1.92816
1612.27988	1.87737
1610.35132	1.82558
1608.42275	1.76985
1606.49419	1.71398
1604.56562	1.66187
1602.63706	1.61206
1600.70850	1.56375
1598.77993	1.51897
1596.85137	1.47696
1594.92280	1.43677
1592.99424	1.39837
1591.06567	1.36345
1589.13711	1.33095
1587.20854	1.30078
1585.27998	1.27296
1583.35142	1.24705
1581.42285	1.22348
1579.49429	1.20387
1577.56572	1.18763
1575.63716	1.16835
1573.70859	1.14966
1571.78003	1.13703
1569.85146	1.12532
1567.92290	1.11262
1565.99434	1.10307
1564.06577	1.09654
1562.13721	1.09221
1560.20864	1.09139
1558.28008	1.09376
1556.35151	1.09345
1554.42295	1.09157
1552.49438	1.09020
1550.56582	1.08814
1548.63726	1.08419
1546.70869	1.07852
1544.78013	1.07114
1542.85156	1.06130
1540.92300	1.04558
1538.99443	1.01799
1537.06587	0.99488
1535.13730	0.97947
1533.20874	0.96122
1531.28018	0.94135
1529.35161	0.92632
1527.42305	0.91307
1525.49448	0.89987
1523.56592	0.88851
1521.63735	0.87767
1519.70879	0.86608
1517.78022	0.85612
1515.85166	0.84475
1513.92310	0.83217
1511.99453	0.82142
1510.06597	0.81293
1508.13740	0.80587
1506.20884	0.79301
1504.28027	0.77859
1502.35171	0.77015
1500.42314	0.76402
1498.49458	0.75827
1496.56602	0.75119
1494.63745	0.74318
1492.70889	0.73709
1490.78032	0.73289
1488.85176	0.72814
1486.92319	0.72214
1484.99463	0.71673
1483.06606	0.71289
1481.13750	0.71026
1479.20894	0.70841
1477.28037	0.70776
1475.35181	0.70844
1473.42324	0.70953
1471.49468	0.70863
1469.56611	0.70563
1467.63755	0.70296
1465.70898	0.70135
1463.78042	0.70011
1461.85186	0.69924
1459.92329	0.69972
1457.99473	0.70166
1456.06616	0.70172
1454.13760	0.69798
1452.20903	0.69425
1450.28047	0.69141
1448.35190	0.68892
1446.42334	0.68596
1444.49478	0.68300
1442.56621	0.68060
1440.63765	0.67848
1438.70908	0.67664
1436.78052	0.67432
1434.85195	0.67081
1432.92339	0.66775
1430.99482	0.66600
1429.06626	0.66505
1427.13770	0.66446
1425.20913	0.66460
1423.28057	0.66543
1421.35200	0.66617
1419.42344	0.66682
1417.49487	0.66666
1415.56631	0.66512
1413.63774	0.66370
1411.70918	0.66309
1409.78062	0.66321
1407.85205	0.66385
1405.92349	0.66498
1403.99492	0.66596
1402.06636	0.66598
1400.13779	0.66542
1398.20923	0.66424
1396.28066	0.66198
1394.35210	0.65837
1392.42354	0.65393
1390.49497	0.64995
1388.56641	0.64645
1386.63784	0.64235
1384.70928	0.63749
1382.78071	0.63275
1380.85215	0.62859
1378.92358	0.62524
1376.99502	0.62293
1375.06646	0.62160
1373.13789	0.62045
1371.20933	0.61927
1369.28076	0.61850
1367.35220	0.61770
1365.42363	0.61662
1363.49507	0.61557
1361.56650	0.61414
1359.63794	0.61219
1357.70937	0.61048
1355.78081	0.60913
1353.85225	0.60793
1351.92368	0.60682
1349.99512	0.60580
1348.06655	0.60481
1346.13799	0.60376
1344.20942	0.60277
1342.28086	0.60216
1340.35229	0.60193
1338.42373	0.60134
1336.49517	0.60008
1334.56660	0.59893
1332.63804	0.59837
1330.70947	0.59828
1328.78091	0.59842
1326.85234	0.59881
1324.92378	0.59942
1322.99521	0.60008
1321.06665	0.60078
1319.13809	0.60147
1317.20952	0.60183
1315.28096	0.60172
1313.35239	0.60126
1311.42383	0.60044
1309.49526	0.59941
1307.56670	0.59852
1305.63813	0.59778
1303.70957	0.59696
1301.78101	0.59598
1299.85244	0.59487
1297.92388	0.59377
1295.99531	0.59263
1294.06675	0.59138
1292.13818	0.59015
1290.20962	0.58899
1288.28105	0.58776
1286.35249	0.58654
1284.42393	0.58537
1282.49536	0.58403
1280.56680	0.58266
1278.63823	0.58142
1276.70967	0.58025
1274.78110	0.57913
1272.85254	0.57816
1270.92397	0.57732
1268.99541	0.57654
1267.06685	0.57586
1265.13828	0.57524
1263.20972	0.57462
1261.28115	0.57393
1259.35259	0.57320
1257.42402	0.57261
1255.49546	0.57228
1253.56689	0.57207
1251.63833	0.57202
1249.70977	0.57218
1247.78120	0.57221
1245.85264	0.57195
1243.92407	0.57149
1241.99551	0.57068
1240.06694	0.56938
1238.13838	0.56770
1236.20981	0.56577
1234.28125	0.56373
1232.35269	0.56171
1230.42412	0.55986
1228.49556	0.55811
1226.56699	0.55624
1224.63843	0.55431
1222.70986	0.55238
1220.78130	0.55054
1218.85273	0.54901
1216.92417	0.54779
1214.99561	0.54670
1213.06704	0.54576
1211.13848	0.54500
1209.20991	0.54432
1207.28135	0.54357
1205.35278	0.54269
1203.42422	0.54180
1201.49565	0.54099
1199.56709	0.54013
1197.63853	0.53918
1195.70996	0.53830
1193.78140	0.53755
1191.85283	0.53688
1189.92427	0.53635
1187.99570	0.53603
1186.06714	0.53586
1184.13857	0.53576
1182.21001	0.53589
1180.28145	0.53651
1178.35288	0.53775
1176.42432	0.53934
1174.49575	0.54071
1172.56719	0.54158
1170.63862	0.54218
1168.71006	0.54262
1166.78149	0.54286
1164.85293	0.54305
1162.92437	0.54332
1160.99580	0.54349
1159.06724	0.54346
1157.13867	0.54315
1155.21011	0.54246
1153.28154	0.54140
1151.35298	0.53993
1149.42441	0.53788
1147.49585	0.53525
1145.56729	0.53230
1143.63872	0.52942
1141.71016	0.52697
1139.78159	0.52505
1137.85303	0.52366
1135.92446	0.52283
1133.99590	0.52239
1132.06733	0.52217
1130.13877	0.52213
1128.21021	0.52200
1126.28164	0.52169
1124.35308	0.52141
1122.42451	0.52112
1120.49595	0.52080
1118.56738	0.52080
1116.63882	0.52130
1114.71025	0.52211
1112.78169	0.52309
1110.85312	0.52414
1108.92456	0.52516
1106.99600	0.52605
1105.06743	0.52672
1103.13887	0.52741
1101.21030	0.52848
1099.28174	0.52984
1097.35317	0.53157
1095.42461	0.53406
1093.49604	0.53763
1091.56748	0.54250
1089.63892	0.54890
1087.71035	0.55687
1085.78179	0.56587
1083.85322	0.57484
1081.92466	0.58248
1079.99609	0.58793
1078.06753	0.59083
1076.13896	0.59048
1074.21040	0.58673
1072.28184	0.58064
1070.35327	0.57352
1068.42471	0.56627
1066.49614	0.55929
1064.56758	0.55285
1062.63901	0.54718
1060.71045	0.54234
1058.78188	0.53816
1056.85332	0.53439
1054.92476	0.53093
1052.99619	0.52799
1051.06763	0.52572
1049.13906	0.52418
1047.21050	0.52352
1045.28193	0.52347
1043.35337	0.52361
1041.42480	0.52379
1039.49624	0.52391
1037.56768	0.52390
1035.63911	0.52382
1033.71055	0.52345
1031.78198	0.52244
1029.85342	0.52075
1027.92485	0.51867
1025.99629	0.51654
1024.06772	0.51477
1022.13916	0.51352
1020.21060	0.51286
1018.28203	0.51276
1016.35347	0.51286
1014.42490	0.51276
1012.49634	0.51226
1010.56777	0.51153
1008.63921	0.51102
1006.71064	0.51117
1004.78208	0.51211
1002.85352	0.51368
1000.92495	0.51588
998.99639	0.51910
997.06782	0.52336
995.13926	0.52808
993.21069	0.53244
991.28213	0.53568
989.35356	0.53752
987.42500	0.53824
985.49644	0.53831
983.56787	0.53809
981.63931	0.53796
979.71074	0.53843
977.78218	0.53975
975.85361	0.54174
973.92505	0.54415
971.99648	0.54690
970.06792	0.54997
968.13936	0.55346
966.21079	0.55738
964.28223	0.56157
962.35366	0.56632
960.42510	0.57169
958.49653	0.57715
956.56797	0.58261
954.63940	0.58842
952.71084	0.59454
950.78228	0.60079
948.85371	0.60717
946.92515	0.61352
944.99658	0.61982
943.06802	0.62617
941.13945	0.63249
939.21089	0.63855
937.28232	0.64434
935.35376	0.65011
933.42520	0.65587
931.49663	0.66135
929.56807	0.66691
927.63950	0.67318
925.71094	0.67967
923.78237	0.68584
921.85381	0.69205
919.92524	0.69866
917.99668	0.70547
916.06812	0.71240
914.13955	0.71973
912.21099	0.72761
910.28242	0.73598
908.35386	0.74460
906.42529	0.75359
904.49673	0.76298
902.56816	0.77213
900.63960	0.78120
898.71104	0.79093
896.78247	0.80114
894.85391	0.81087
892.92534	0.82018
890.99678	0.83048
889.06821	0.84156
887.13965	0.85232
885.21108	0.86300
883.28252	0.87408
881.35396	0.88580
879.42539	0.89794
877.49683	0.90961
875.56826	0.92072
873.63970	0.93219
871.71113	0.94465
869.78257	0.95712
867.85400	0.96840
865.92544	0.97903
863.99687	0.98993
862.06831	1.00141
860.13975	1.01371
858.21118	1.02675
856.28262	1.04012
854.35405	1.05308
852.42549	1.06458
850.49692	1.07467
848.56836	1.08466
846.63979	1.09616
844.71123	1.10902
842.78267	1.11992
840.85410	1.12842
838.92554	1.13952
836.99697	1.15588
835.06841	1.17363
833.13984	1.18824
831.21128	1.19790
829.28271	1.20296
827.35415	1.20961
825.42559	1.22328
823.49702	1.24322
821.56846	1.26693
819.63989	1.28986
817.71133	1.30472
815.78276	1.30964
813.85420	1.31291
811.92563	1.32359
809.99707	1.33592
808.06851	1.33932
806.13994	1.34426
804.21138	1.35376
802.28281	1.36316
800.35425	1.39296
798.42568	1.44568
796.49712	1.48933
794.56855	1.52956
792.63999	1.56604
790.71143	1.55549
788.78286	1.56075
786.85430	1.64847
784.92573	1.70369
782.99717	1.63428
781.06860	1.56742
779.14004	1.56131
777.21147	1.62452
775.28291	1.81122
773.35435	2.22053
771.42578	1.94630
769.49722	1.52167
767.56865	1.33255
765.64009	1.30511
763.71152	1.38591
761.78296	1.46889
759.85439	1.47171
757.92583	1.44347
755.99727	1.39921
754.06870	1.30053
752.14014	1.24130
750.21157	1.31186
748.28301	1.58986
746.35444	1.90775
744.42588	1.54389
742.49731	1.26865
740.56875	1.08761
738.64019	0.99314
736.71162	0.92980
734.78306	0.79036
732.85449	0.64699
730.92593	0.61949
728.99736	0.71575
727.06880	0.62596
725.14023	0.33687
723.21167	0.18443
721.28311	0.18832
719.35454	0.23860
717.42598	0.23307
715.49741	0.16442
713.56885	0.03321
711.64028	-0.10171
709.71172	-0.05838
707.78315	0.05011
705.85459	0.04892
703.92603	0.09243
701.99746	0.13854
700.06890	0.15878
698.14033	0.21880
696.21177	0.35492
694.28320	0.43179
692.35464	0.36156
690.42607	0.37855
688.49751	0.42720
686.56895	0.35496
684.64038	0.26991
682.71182	0.25481
680.78325	0.30772
678.85469	0.35703
676.92612	0.30031
674.99756	0.24298
673.06899	0.28600
671.14043	0.40627
669.21187	0.58112
667.28330	0.56375
665.35474	0.42073
663.42617	0.36033
661.49761	0.34872
659.56904	0.31645
657.64048	0.24666
655.71191	0.22954
653.78335	0.25231
651.85479	0.19624
649.92622	0.13678
647.99766	0.18892
646.06909	0.30696
644.14053	0.34193
642.21196	0.33076
640.28340	0.29580
638.35483	0.21969
636.42627	0.17716
634.49771	0.20754
632.56914	0.24892
630.64058	0.32410
628.71201	0.46741
626.78345	0.51205
624.85488	0.35306
622.92632	0.23596
620.99775	0.22756
619.06919	0.24953
617.14062	0.23615
615.21206	0.22881
613.28350	0.24283
611.35493	0.23939
609.42637	0.24271
607.49780	0.26174
605.56924	0.26408
603.64067	0.25045
601.71211	0.21338
599.78354	0.17235
597.85498	0.16878
595.92642	0.18994
593.99785	0.23419
592.06929	0.30816
590.14072	0.36667
588.21216	0.38652
586.28359	0.33289
584.35503	0.27047
582.42646	0.27129
580.49790	0.28782
578.56934	0.27663
576.64077	0.25694
574.71221	0.20790
572.78364	0.16448
570.85508	0.18499
568.92651	0.21686
566.99795	0.17829
565.06938	0.16972
563.14082	0.26046
561.21226	0.48256
559.28369	0.72856
557.35513	0.55618
555.42656	0.41476
553.49800	0.32139
551.56943	0.27446
549.64087	0.28695
547.71230	0.32997
545.78374	0.33051
543.85518	0.28725
541.92661	0.25454
539.99805	0.24067
538.06948	0.26833
536.14092	0.34106
534.21235	0.36047
532.28379	0.32973
530.35522	0.31544
528.42666	0.31821
526.49810	0.29726
524.56953	0.26084
522.64097	0.24657
520.71240	0.24216
518.78384	0.24521
516.85527	0.23325
514.92671	0.22232
512.99814	0.25048
511.06958	0.26578
509.14102	0.23689
507.21245	0.19820
505.28389	0.16521
503.35532	0.15812
501.42676	0.17427
499.49819	0.21020
