3997.91411	0.06631
3995.98555	0.06649
3994.05698	0.06690
3992.12842	0.06720
3990.19985	0.06749
3988.27129	0.06786
3986.34272	0.06826
3984.41416	0.06878
3982.48560	0.06934
3980.55703	0.06953
3978.62847	0.06922
3976.69990	0.06891
3974.77134	0.06909
3972.84277	0.06965
3970.91421	0.07019
3968.98564	0.07042
3967.05708	0.07026
3965.12852	0.06993
3963.19995	0.06983
3961.27139	0.06991
3959.34282	0.07003
3957.41426	0.07053
3955.48569	0.07119
3953.55713	0.07112
3951.62856	0.07058
3949.70000	0.07052
3947.77144	0.07076
3945.84287	0.07068
3943.91431	0.07063
3941.98574	0.07098
3940.05718	0.07123
3938.12861	0.07110
3936.20005	0.07101
3934.27148	0.07100
3932.34292	0.07090
3930.41436	0.07066
3928.48579	0.07036
3926.55723	0.07017
3924.62866	0.07006
3922.70010	0.06986
3920.77153	0.06951
3918.84297	0.06936
3916.91440	0.06969
3914.98584	0.07012
3913.05728	0.07031
3911.12871	0.07030
3909.20015	0.07007
3907.27158	0.06983
3905.34302	0.06991
3903.41445	0.07027
3901.48589	0.07036
3899.55732	0.07038
3897.62876	0.07061
3895.70020	0.07056
3893.77163	0.07045
3891.84307	0.07087
3889.91450	0.07141
3887.98594	0.07135
3886.05737	0.07128
3884.12881	0.07132
3882.20024	0.07117
3880.27168	0.07133
3878.34312	0.07152
3876.41455	0.07129
3874.48599	0.07145
3872.55742	0.07213
3870.62886	0.07256
3868.70029	0.07268
3866.77173	0.07274
3864.84316	0.07277
3862.91460	0.07281
3860.98604	0.07295
3859.05747	0.07333
3857.12891	0.07371
3855.20034	0.07396
3853.27178	0.07482
3851.34321	0.07605
3849.41465	0.07583
3847.48608	0.07527
3845.55752	0.07522
3843.62896	0.07577
3841.70039	0.07667
3839.77183	0.07741
3837.84326	0.07820
3835.91470	0.07918
3833.98613	0.07972
3832.05757	0.08001
3830.12900	0.08068
3828.20044	0.08148
3826.27187	0.08199
3824.34331	0.08243
3822.41475	0.08336
3820.48618	0.08531
3818.55762	0.08706
3816.62905	0.08775
3814.70049	0.08811
3812.77192	0.08829
3810.84336	0.08862
3808.91479	0.08926
3806.98623	0.09053
3805.05767	0.09238
3803.12910	0.09382
3801.20054	0.09521
3799.27197	0.09665
3797.34341	0.09754
3795.41484	0.09874
3793.48628	0.10022
3791.55771	0.10137
3789.62915	0.10241
3787.70059	0.10341
3785.77202	0.10446
3783.84346	0.10589
3781.91489	0.10770
3779.98633	0.10955
3778.05776	0.11129
3776.12920	0.11266
3774.20063	0.11389
3772.27207	0.11546
3770.34351	0.11738
3768.41494	0.11940
3766.48638	0.12119
3764.55781	0.12298
3762.62925	0.12492
3760.70068	0.12698
3758.77212	0.12955
3756.84355	0.13245
3754.91499	0.13468
3752.98643	0.13632
3751.05786	0.13860
3749.12930	0.14247
3747.20073	0.14585
3745.27217	0.14836
3743.34360	0.15218
3741.41504	0.15618
3739.48647	0.15871
3737.55791	0.16121
3735.62935	0.16553
3733.70078	0.17174
3731.77222	0.17700
3729.84365	0.18098
3727.91509	0.18498
3725.98652	0.19024
3724.05796	0.19693
3722.12939	0.20399
3720.20083	0.21133
3718.27227	0.21897
3716.34370	0.22645
3714.41514	0.23373
3712.48657	0.24254
3710.55801	0.25505
3708.62944	0.26905
3706.70088	0.28144
3704.77231	0.29321
3702.84375	0.30615
3700.91519	0.32245
3698.98662	0.34109
3697.05806	0.35944
3695.12949	0.37840
3693.20093	0.39795
3691.27236	0.41889
3689.34380	0.44598
3687.41523	0.47997
3685.48667	0.51066
3683.55811	0.53734
3681.62954	0.56607
3679.70098	0.59826
3677.77241	0.63144
3675.84385	0.67003
3673.91528	0.72228
3671.98672	0.76668
3670.05815	0.80586
3668.12959	0.85854
3666.20103	0.90792
3664.27246	0.94934
3662.34390	0.99339
3660.41533	1.04153
3658.48677	1.08889
3656.55820	1.13820
3654.62964	1.19306
3652.70107	1.23982
3650.77251	1.27992
3648.84395	1.33380
3646.91538	1.40100
3644.98682	1.45359
3643.05825	1.49491
3641.12969	1.53612
3639.20112	1.58043
3637.27256	1.62491
3635.34399	1.66867
3633.41543	1.71260
3631.48687	1.75336
3629.55830	1.79399
3627.62974	1.84721
3625.70117	1.89865
3623.77261	1.93448
3621.84404	1.96822
3619.91548	2.00624
3617.98691	2.05160
3616.05835	2.09550
3614.12979	2.13301
3612.20122	2.17268
3610.27266	2.21230
3608.34409	2.25174
3606.41553	2.29416
3604.48696	2.33462
3602.55840	2.37102
3600.62983	2.40983
3598.70127	2.45161
3596.77271	2.49207
3594.84414	2.53350
3592.91558	2.57680
3590.98701	2.61672
3589.05845	2.65285
3587.12988	2.69547
3585.20132	2.74369
3583.27275	2.78613
3581.34419	2.82504
3579.41562	2.86613
3577.48706	2.90955
3575.55850	2.95344
3573.62993	2.99738
3571.70137	3.03895
3569.77280	3.07927
3567.84424	3.12245
3565.91567	3.17420
3563.98711	3.22689
3562.05854	3.27181
3560.12998	3.31499
3558.20142	3.35984
3556.27285	3.40531
3554.34429	3.45083
3552.41572	3.49922
3550.48716	3.54830
3548.55859	3.59283
3546.63003	3.63522
3544.70146	3.68289
3542.77290	3.73366
3540.84434	3.78112
3538.91577	3.82638
3536.98721	3.87282
3535.05864	3.92346
3533.13008	3.97453
3531.20151	4.02255
3529.27295	4.06862
3527.34438	4.11740
3525.41582	4.16717
3523.48726	4.21383
3521.55869	4.26234
3519.63013	4.31091
3517.70156	4.35602
3515.77300	4.40203
3513.84443	4.45207
3511.91587	4.50337
3509.98730	4.55474
3508.05874	4.60532
3506.13018	4.65389
3504.20161	4.70213
3502.27305	4.75055
3500.34448	4.79751
3498.41592	4.84407
3496.48735	4.89340
3494.55879	4.94216
3492.63022	4.99093
3490.70166	5.04417
3488.77310	5.09716
3486.84453	5.14462
3484.91597	5.18945
3482.98740	5.23543
3481.05884	5.28358
3479.13027	5.33529
3477.20171	5.39006
3475.27314	5.44056
3473.34458	5.47943
3471.41602	5.51733
3469.48745	5.56490
3467.55889	5.61427
3465.63032	5.66501
3463.70176	5.71812
3461.77319	5.75859
3459.84463	5.79908
3457.91606	5.86498
3455.98750	5.93527
3454.05894	5.98092
3452.13037	6.01984
3450.20181	6.07345
3448.27324	6.12673
3446.34468	6.16431
3444.41611	6.19616
3442.48755	6.24366
3440.55898	6.30987
3438.63042	6.37872
3436.70186	6.43450
3434.77329	6.48823
3432.84473	6.54922
3430.91616	6.59569
3428.98760	6.63127
3427.05903	6.68016
3425.13047	6.73427
3423.20190	6.77040
3421.27334	6.81117
3419.34478	6.86075
3417.41621	6.89639
3415.48765	6.94527
3413.55908	7.02316
3411.63052	7.09230
3409.70195	7.11721
3407.77339	7.14479
3405.84482	7.20397
3403.91626	7.24935
3401.98770	7.26437
3400.05913	7.28952
3398.13057	7.33690
3396.20200	7.39725
3394.27344	7.47497
3392.34487	7.52531
3390.41631	7.53827
3388.48774	7.55342
3386.55918	7.59050
3384.63062	7.65176
3382.70205	7.73385
3380.77349	7.79485
3378.84492	7.78943
3376.91636	7.74235
3374.98779	7.71459
3373.05923	7.77079
3371.13066	7.85515
3369.20210	7.86534
3367.27354	7.82377
3365.34497	7.82692
3363.41641	7.87774
3361.48784	7.89941
3359.55928	7.90997
3357.63071	7.95999
3355.70215	8.02514
3353.77358	8.03111
3351.84502	7.99976
3349.91646	7.99128
3347.98789	8.03618
3346.05933	8.09738
3344.13076	8.11804
3342.20220	8.13230
3340.27363	8.13638
3338.34507	8.13563
3336.41650	8.13765
3334.48794	8.11189
3332.55937	8.07305
3330.63081	8.07128
3328.70225	8.07971
3326.77368	8.06826
3324.84512	8.09578
3322.91655	8.19864
3320.98799	8.33319
3319.05942	8.36080
3317.13086	8.27801
3315.20229	8.23205
3313.27373	8.27494
3311.34517	8.30761
3309.41660	8.27369
3307.48804	8.27397
3305.55947	8.33226
3303.63091	8.32644
3301.70234	8.22955
3299.77378	8.19321
3297.84521	8.21682
3295.91665	8.21122
3293.98809	8.18031
3292.05952	8.18046
3290.13096	8.25780
3288.20239	8.34636
3286.27383	8.36788
3284.34526	8.34733
3282.41670	8.34521
3280.48813	8.34791
3278.55957	8.36377
3276.63101	8.44800
3274.70244	8.54500
3272.77388	8.51180
3270.84531	8.32108
3268.91675	8.16623
3266.98818	8.20627
3265.05962	8.35209
3263.13105	8.39538
3261.20249	8.33747
3259.27393	8.29154
3257.34536	8.29754
3255.41680	8.30188
3253.48823	8.29907
3251.55967	8.31482
3249.63110	8.27202
3247.70254	8.18995
3245.77397	8.17610
3243.84541	8.27083
3241.91685	8.38196
3239.98828	8.39816
3238.05972	8.36427
3236.13115	8.34294
3234.20259	8.32588
3232.27402	8.27371
3230.34546	8.19300
3228.41689	8.16731
3226.48833	8.20195
3224.55977	8.18211
3222.63120	8.10863
3220.70264	8.05588
3218.77407	8.02872
3216.84551	7.99366
3214.91694	7.93968
3212.98838	7.94921
3211.05981	8.00906
3209.13125	7.98494
3207.20269	7.90403
3205.27412	7.87682
3203.34556	7.89993
3201.41699	7.87781
3199.48843	7.82402
3197.55986	7.82445
3195.63130	7.81032
3193.70273	7.75001
3191.77417	7.69832
3189.84561	7.62233
3187.91704	7.52080
3185.98848	7.46489
3184.05991	7.48972
3182.13135	7.54476
3180.20278	7.54163
3178.27422	7.44581
3176.34565	7.30103
3174.41709	7.17615
3172.48853	7.11383
3170.55996	7.11668
3168.63140	7.12797
3166.70283	7.07729
3164.77427	6.99103
3162.84570	6.90641
3160.91714	6.80095
3158.98857	6.70172
3157.06001	6.64286
3155.13145	6.60514
3153.20288	6.56092
3151.27432	6.50098
3149.34575	6.43263
3147.41719	6.36220
3145.48862	6.29220
3143.56006	6.22000
3141.63149	6.14788
3139.70293	6.07627
3137.77437	5.99947
3135.84580	5.92613
3133.91724	5.85726
3131.98867	5.78059
3130.06011	5.70516
3128.13154	5.64022
3126.20298	5.57114
3124.27441	5.49056
3122.34585	5.41147
3120.41729	5.34556
3118.48872	5.28972
3116.56016	5.23412
3114.63159	5.16593
3112.70303	5.08410
3110.77446	5.00652
3108.84590	4.94180
3106.91733	4.88250
3104.98877	4.81783
3103.06021	4.74399
3101.13164	4.66829
3099.20308	4.60091
3097.27451	4.54085
3095.34595	4.47742
3093.41738	4.40998
3091.48882	4.34491
3089.56025	4.28009
3087.63169	4.21461
3085.70312	4.15342
3083.77456	4.09477
3081.84600	4.03491
3079.91743	3.97561
3077.98887	3.91611
3076.06030	3.85412
3074.13174	3.79313
3072.20317	3.73500
3070.27461	3.67711
3068.34604	3.62004
3066.41748	3.56412
3064.48892	3.50800
3062.56035	3.45284
3060.63179	3.39840
3058.70322	3.34284
3056.77466	3.28731
3054.84609	3.23290
3052.91753	3.17960
3050.98896	3.12828
3049.06040	3.07814
3047.13184	3.02810
3045.20327	2.97877
3043.27471	2.92990
3041.34614	2.88069
3039.41758	2.83159
3037.48901	2.78358
3035.56045	2.73722
3033.63188	2.69220
3031.70332	2.64705
3029.77476	2.60147
3027.84619	2.55679
3025.91763	2.51308
3023.98906	2.46980
3022.06050	2.42755
3020.13193	2.38628
3018.20337	2.34506
3016.27480	2.30401
3014.34624	2.26364
3012.41768	2.22367
3010.48911	2.18427
3008.56055	2.14646
3006.63198	2.11025
3004.70342	2.07455
3002.77485	2.03904
3000.84629	2.00404
2998.91772	1.96983
2996.98916	1.93656
2995.06060	1.90404
2993.13203	1.87236
2991.20347	1.84182
2989.27490	1.81207
2987.34634	1.78261
2985.41777	1.75353
2983.48921	1.72509
2981.56064	1.69714
2979.63208	1.66972
2977.70352	1.64342
2975.77495	1.61802
2973.84639	1.59232
2971.91782	1.56659
2969.98926	1.54201
2968.06069	1.51802
2966.13213	1.49397
2964.20356	1.46996
2962.27500	1.44582
2960.34644	1.42169
2958.41787	1.39756
2956.48931	1.37316
2954.56074	1.34883
2952.63218	1.32484
2950.70361	1.30114
2948.77505	1.27791
2946.84648	1.25529
2944.91792	1.23332
2942.98936	1.21202
2941.06079	1.19134
2939.13223	1.17095
2937.20366	1.15061
2935.27510	1.13025
2933.34653	1.10985
2931.41797	1.08972
2929.48940	1.07008
2927.56084	1.05091
2925.63228	1.03219
2923.70371	1.01374
2921.77515	0.99527
2919.84658	0.97690
2917.91802	0.95904
2915.98945	0.94149
2914.06089	0.92399
2912.13232	0.90724
2910.20376	0.89154
2908.27520	0.87611
2906.34663	0.86075
2904.41807	0.84594
2902.48950	0.83162
2900.56094	0.81751
2898.63237	0.80365
2896.70381	0.79031
2894.77524	0.77742
2892.84668	0.76484
2890.91812	0.75262
2888.98955	0.74073
2887.06099	0.72939
2885.13242	0.71886
2883.20386	0.70887
2881.27529	0.69897
2879.34673	0.68914
2877.41816	0.67947
2875.48960	0.66955
2873.56104	0.65893
2871.63247	0.64769
2869.70391	0.63619
2867.77534	0.62453
2865.84678	0.61253
2863.91821	0.60038
2861.98965	0.58865
2860.06108	0.57758
2858.13252	0.56709
2856.20396	0.55702
2854.27539	0.54706
2852.34683	0.53722
2850.41826	0.52787
2848.48970	0.51896
2846.56113	0.51033
2844.63257	0.50230
2842.70400	0.49505
2840.77544	0.48844
2838.84687	0.48218
2836.91831	0.47593
2834.98975	0.46965
2833.06118	0.46352
2831.13262	0.45741
2829.20405	0.45116
2827.27549	0.44487
2825.34692	0.43872
2823.41836	0.43272
2821.48979	0.42675
2819.56123	0.42084
2817.63267	0.41483
2815.70410	0.40867
2813.77554	0.40269
2811.84697	0.39698
2809.91841	0.39138
2807.98984	0.38576
2806.06128	0.38022
2804.13271	0.37489
2802.20415	0.36967
2800.27559	0.36448
2798.34702	0.35932
2796.41846	0.35436
2794.48989	0.34954
2792.56133	0.34471
2790.63276	0.33992
2788.70420	0.33515
2786.77563	0.33041
2784.84707	0.32576
2782.91851	0.32132
2780.98994	0.31711
2779.06138	0.31304
2777.13281	0.30904
2775.20425	0.30506
2773.27568	0.30102
2771.34712	0.29707
2769.41855	0.29322
2767.48999	0.28933
2765.56143	0.28554
2763.63286	0.28198
2761.70430	0.27853
2759.77573	0.27499
2757.84717	0.27150
2755.91860	0.26832
2753.99004	0.26526
2752.06147	0.26204
2750.13291	0.25881
2748.20435	0.25568
2746.27578	0.25271
2744.34722	0.24991
2742.41865	0.24719
2740.49009	0.24451
2738.56152	0.24182
2736.63296	0.23910
2734.70439	0.23641
2732.77583	0.23378
2730.84727	0.23129
2728.91870	0.22899
2726.99014	0.22678
2725.06157	0.22448
2723.13301	0.22214
2721.20444	0.21983
2719.27588	0.21754
2717.34731	0.21534
2715.41875	0.21330
2713.49019	0.21147
2711.56162	0.20969
2709.63306	0.20777
2707.70449	0.20582
2705.77593	0.20406
2703.84736	0.20254
2701.91880	0.20107
2699.99023	0.19943
2698.06167	0.19766
2696.13311	0.19601
2694.20454	0.19453
2692.27598	0.19300
2690.34741	0.19155
2688.41885	0.19030
2686.49028	0.18904
2684.56172	0.18760
2682.63315	0.18614
2680.70459	0.18487
2678.77603	0.18377
2676.84746	0.18269
2674.91890	0.18151
2672.99033	0.18027
2671.06177	0.17907
2669.13320	0.17796
2667.20464	0.17695
2665.27607	0.17603
2663.34751	0.17516
2661.41895	0.17424
2659.49038	0.17322
2657.56182	0.17224
2655.63325	0.17139
2653.70469	0.17064
2651.77612	0.16998
2649.84756	0.16934
2647.91899	0.16854
2645.99043	0.16761
2644.06187	0.16681
2642.13330	0.16618
2640.20474	0.16555
2638.27617	0.16489
2636.34761	0.16439
2634.41904	0.16405
2632.49048	0.16364
2630.56191	0.16314
2628.63335	0.16272
2626.70479	0.16235
2624.77622	0.16186
2622.84766	0.16134
2620.91909	0.16101
2618.99053	0.16080
2617.06196	0.16063
2615.13340	0.16037
2613.20483	0.15996
2611.27627	0.15958
2609.34771	0.15933
2607.41914	0.15921
2605.49058	0.15915
2603.56201	0.15902
2601.63345	0.15887
2599.70488	0.15880
2597.77632	0.15876
2595.84775	0.15875
2593.91919	0.15877
2591.99062	0.15879
2590.06206	0.15888
2588.13350	0.15906
2586.20493	0.15933
2584.27637	0.15960
2582.34780	0.15970
2580.41924	0.15972
2578.49067	0.15984
2576.56211	0.16006
2574.63354	0.16034
2572.70498	0.16065
2570.77642	0.16099
2568.84785	0.16143
2566.91929	0.16189
2564.99072	0.16222
2563.06216	0.16246
2561.13359	0.16273
2559.20503	0.16306
2557.27646	0.16352
2555.34790	0.16400
2553.41934	0.16441
2551.49077	0.16485
2549.56221	0.16538
2547.63364	0.16588
2545.70508	0.16642
2543.77651	0.16703
2541.84795	0.16755
2539.91938	0.16799
2537.99082	0.16859
2536.06226	0.16931
2534.13369	0.16996
2532.20513	0.17044
2530.27656	0.17091
2528.34800	0.17162
2526.41943	0.17246
2524.49087	0.17321
2522.56230	0.17391
2520.63374	0.17460
2518.70518	0.17526
2516.77661	0.17591
2514.84805	0.17660
2512.91948	0.17734
2510.99092	0.17808
2509.06235	0.17888
2507.13379	0.17971
2505.20522	0.18044
2503.27666	0.18112
2501.34810	0.18194
2499.41953	0.18285
2497.49097	0.18371
2495.56240	0.18447
2493.63384	0.18518
2491.70527	0.18588
2489.77671	0.18662
2487.84814	0.18743
2485.91958	0.18829
2483.99102	0.18914
2482.06245	0.19004
2480.13389	0.19102
2478.20532	0.19193
2476.27676	0.19273
2474.34819	0.19351
2472.41963	0.19429
2470.49106	0.19512
2468.56250	0.19604
2466.63394	0.19703
2464.70537	0.19798
2462.77681	0.19881
2460.84824	0.19966
2458.91968	0.20058
2456.99111	0.20150
2455.06255	0.20242
2453.13398	0.20332
2451.20542	0.20418
2449.27686	0.20506
2447.34829	0.20601
2445.41973	0.20700
2443.49116	0.20796
2441.56260	0.20894
2439.63403	0.20997
2437.70547	0.21099
2435.77690	0.21197
2433.84834	0.21300
2431.91978	0.21408
2429.99121	0.21509
2428.06265	0.21603
2426.13408	0.21702
2424.20552	0.21806
2422.27695	0.21908
2420.34839	0.22012
2418.41982	0.22122
2416.49126	0.22231
2414.56270	0.22345
2412.63413	0.22464
2410.70557	0.22582
2408.77700	0.22704
2406.84844	0.22820
2404.91987	0.22930
2402.99131	0.23042
2401.06274	0.23157
2399.13418	0.23271
2397.20562	0.23388
2395.27705	0.23513
2393.34849	0.23646
2391.41992	0.23780
2389.49136	0.23906
2387.56279	0.24028
2385.63423	0.24149
2383.70566	0.24274
2381.77710	0.24413
2379.84854	0.24552
2377.91997	0.24669
2375.99141	0.24784
2374.06284	0.24937
2372.13428	0.25114
2370.20571	0.25288
2368.27715	0.25472
2366.34858	0.25647
2364.42002	0.25737
2362.49146	0.25781
2360.56289	0.25900
2358.63433	0.26097
2356.70576	0.26265
2354.77720	0.26393
2352.84863	0.26599
2350.92007	0.26830
2348.99150	0.26971
2347.06294	0.27081
2345.13437	0.27258
2343.20581	0.27463
2341.27725	0.27614
2339.34868	0.27762
2337.42012	0.27924
2335.49155	0.28090
2333.56299	0.28249
2331.63442	0.28418
2329.70586	0.28592
2327.77729	0.28749
2325.84873	0.28904
2323.92017	0.29071
2321.99160	0.29253
2320.06304	0.29434
2318.13447	0.29593
2316.20591	0.29734
2314.27734	0.29888
2312.34878	0.30061
2310.42021	0.30245
2308.49165	0.30426
2306.56309	0.30605
2304.63452	0.30777
2302.70596	0.30950
2300.77739	0.31142
2298.84883	0.31335
2296.92026	0.31509
2294.99170	0.31673
2293.06313	0.31845
2291.13457	0.32026
2289.20601	0.32225
2287.27744	0.32435
2285.34888	0.32636
2283.42031	0.32828
2281.49175	0.33023
2279.56318	0.33225
2277.63462	0.33434
2275.70605	0.33641
2273.77749	0.33842
2271.84893	0.34046
2269.92036	0.34262
2267.99180	0.34480
2266.06323	0.34689
2264.13467	0.34898
2262.20610	0.35113
2260.27754	0.35333
2258.34897	0.35556
2256.42041	0.35769
2254.49185	0.35975
2252.56328	0.36187
2250.63472	0.36402
2248.70615	0.36627
2246.77759	0.36871
2244.84902	0.37105
2242.92046	0.37319
2240.99189	0.37535
2239.06333	0.37759
2237.13477	0.37975
2235.20620	0.38186
2233.27764	0.38406
2231.34907	0.38636
2229.42051	0.38871
2227.49194	0.39110
2225.56338	0.39338
2223.63481	0.39555
2221.70625	0.39763
2219.77769	0.39968
2217.84912	0.40187
2215.92056	0.40412
2213.99199	0.40632
2212.06343	0.40853
2210.13486	0.41081
2208.20630	0.41303
2206.27773	0.41511
2204.34917	0.41705
2202.42061	0.41897
2200.49204	0.42103
2198.56348	0.42318
2196.63491	0.42519
2194.70635	0.42714
2192.77778	0.42916
2190.84922	0.43105
2188.92065	0.43279
2186.99209	0.43466
2185.06353	0.43658
2183.13496	0.43833
2181.20640	0.43999
2179.27783	0.44168
2177.34927	0.44333
2175.42070	0.44490
2173.49214	0.44640
2171.56357	0.44780
2169.63501	0.44910
2167.70645	0.45035
2165.77788	0.45163
2163.84932	0.45292
2161.92075	0.45410
2159.99219	0.45518
2158.06362	0.45630
2156.13506	0.45737
2154.20649	0.45819
2152.27793	0.45885
2150.34937	0.45951
2148.42080	0.46025
2146.49224	0.46100
2144.56367	0.46158
2142.63511	0.46210
2140.70654	0.46257
2138.77798	0.46279
2136.84941	0.46282
2134.92085	0.46287
2132.99229	0.46293
2131.06372	0.46287
2129.13516	0.46272
2127.20659	0.46252
2125.27803	0.46213
2123.34946	0.46151
2121.42090	0.46100
2119.49233	0.46072
2117.56377	0.46032
2115.63521	0.45957
2113.70664	0.45867
2111.77808	0.45775
2109.84951	0.45677
2107.92095	0.45572
2105.99238	0.45463
2104.06382	0.45351
2102.13525	0.45228
2100.20669	0.45092
2098.27812	0.44951
2096.34956	0.44813
2094.42100	0.44656
2092.49243	0.44479
2090.56387	0.44304
2088.63530	0.44123
2086.70674	0.43936
2084.77817	0.43757
2082.84961	0.43582
2080.92104	0.43386
2078.99248	0.43164
2077.06392	0.42938
2075.13535	0.42728
2073.20679	0.42524
2071.27822	0.42308
2069.34966	0.42080
2067.42109	0.41851
2065.49253	0.41620
2063.56396	0.41369
2061.63540	0.41108
2059.70684	0.40855
2057.77827	0.40602
2055.84971	0.40341
2053.92114	0.40079
2051.99258	0.39818
2050.06401	0.39553
2048.13545	0.39290
2046.20688	0.39027
2044.27832	0.38764
2042.34976	0.38495
2040.42119	0.38219
2038.49263	0.37941
2036.56406	0.37663
2034.63550	0.37389
2032.70693	0.37121
2030.77837	0.36852
2028.84980	0.36568
2026.92124	0.36271
2024.99268	0.35978
2023.06411	0.35691
2021.13555	0.35409
2019.20698	0.35135
2017.27842	0.34862
2015.34985	0.34585
2013.42129	0.34307
2011.49272	0.34028
2009.56416	0.33758
2007.63560	0.33492
2005.70703	0.33220
2003.77847	0.32943
2001.84990	0.32666
1999.92134	0.32394
1997.99277	0.32132
1996.06421	0.31877
1994.13564	0.31627
1992.20708	0.31383
1990.27852	0.31131
1988.34995	0.30869
1986.42139	0.30609
1984.49282	0.30363
1982.56426	0.30123
1980.63569	0.29885
1978.70713	0.29656
1976.77856	0.29434
1974.85000	0.29215
1972.92144	0.28993
1970.99287	0.28774
1969.06431	0.28564
1967.13574	0.28356
1965.20718	0.28148
1963.27861	0.27948
1961.35005	0.27756
1959.42148	0.27564
1957.49292	0.27378
1955.56436	0.27192
1953.63579	0.27004
1951.70723	0.26825
1949.77866	0.26660
1947.85010	0.26505
1945.92153	0.26357
1943.99297	0.26215
1942.06440	0.26066
1940.13584	0.25908
1938.20728	0.25755
1936.27871	0.25612
1934.35015	0.25474
1932.42158	0.25346
1930.49302	0.25225
1928.56445	0.25108
1926.63589	0.24996
1924.70732	0.24893
1922.77876	0.24794
1920.85020	0.24689
1918.92163	0.24590
1916.99307	0.24500
1915.06450	0.24410
1913.13594	0.24324
1911.20737	0.24257
1909.27881	0.24196
1907.35024	0.24127
1905.42168	0.24059
1903.49312	0.24003
1901.56455	0.23947
1899.63599	0.23887
1897.70742	0.23838
1895.77886	0.23802
1893.85029	0.23771
1891.92173	0.23741
1889.99316	0.23719
1888.06460	0.23694
1886.13604	0.23661
1884.20747	0.23629
1882.27891	0.23610
1880.35034	0.23604
1878.42178	0.23594
1876.49321	0.23582
1874.56465	0.23574
1872.63608	0.23574
1870.70752	0.23588
1868.77896	0.23631
1866.85039	0.23666
1864.92183	0.23666
1862.99326	0.23668
1861.06470	0.23686
1859.13613	0.23721
1857.20757	0.23762
1855.27900	0.23811
1853.35044	0.23863
1851.42187	0.23918
1849.49331	0.23975
1847.56475	0.24031
1845.63618	0.24094
1843.70762	0.24189
1841.77905	0.24281
1839.85049	0.24334
1837.92192	0.24408
1835.99336	0.24506
1834.06479	0.24602
1832.13623	0.24696
1830.20767	0.24828
1828.27910	0.24975
1826.35054	0.25087
1824.42197	0.25219
1822.49341	0.25360
1820.56484	0.25492
1818.63628	0.25630
1816.70771	0.25787
1814.77915	0.25942
1812.85059	0.26107
1810.92202	0.26303
1808.99346	0.26514
1807.06489	0.26718
1805.13633	0.26911
1803.20776	0.27124
1801.27920	0.27367
1799.35063	0.27645
1797.42207	0.27903
1795.49351	0.28145
1793.56494	0.28417
1791.63638	0.28768
1789.70781	0.29122
1787.77925	0.29397
1785.85068	0.29711
1783.92212	0.30079
1781.99355	0.30470
1780.06499	0.30887
1778.13643	0.31328
1776.20786	0.31736
1774.27930	0.32144
1772.35073	0.32686
1770.42217	0.33315
1768.49360	0.33887
1766.56504	0.34435
1764.63647	0.34977
1762.70791	0.35556
1760.77935	0.36288
1758.85078	0.36997
1756.92222	0.37709
1754.99365	0.38487
1753.06509	0.39198
1751.13652	0.40015
1749.20796	0.41028
1747.27939	0.42054
1745.35083	0.42981
1743.42227	0.43943
1741.49370	0.44988
1739.56514	0.46220
1737.63657	0.47469
1735.70801	0.48558
1733.77944	0.50154
1731.85088	0.52107
1729.92231	0.53709
1727.99375	0.55317
1726.06519	0.57032
1724.13662	0.58888
1722.20806	0.60890
1720.27949	0.62749
1718.35093	0.64896
1716.42236	0.68031
1714.49380	0.71101
1712.56523	0.73660
1710.63667	0.76134
1708.70811	0.78760
1706.77954	0.81715
1704.85098	0.85245
1702.92241	0.88461
1700.99385	0.91662
1699.06528	0.96330
1697.13672	1.00652
1695.20815	1.05171
1693.27959	1.09712
1691.35103	1.13419
1689.42246	1.17638
1687.49390	1.22120
1685.56533	1.26502
1683.63677	1.33125
1681.70820	1.40049
1679.77964	1.44548
1677.85107	1.48820
1675.92251	1.53799
1673.99395	1.59951
1672.06538	1.65438
1670.13682	1.70798
1668.20825	1.77841
1666.27969	1.83828
1664.35112	1.88977
1662.42256	1.95376
1660.49399	2.02765
1658.56543	2.08782
1656.63687	2.13662
1654.70830	2.17955
1652.77974	2.24011
1650.85117	2.29712
1648.92261	2.31811
1646.99404	2.34138
1645.06548	2.36293
1643.13691	2.37687
1641.20835	2.38543
1639.27979	2.39473
1637.35122	2.40039
1635.42266	2.39723
1633.49409	2.38612
1631.56553	2.37015
1629.63696	2.35108
1627.70840	2.32067
1625.77983	2.28536
1623.85127	2.24026
1621.92271	2.18475
1619.99414	2.13456
1618.06558	2.08606
1616.13701	2.02019
1614.20845	1.95342
1612.27988	1.90140
1610.35132	1.84706
1608.42275	1.78833
1606.49419	1.73054
1604.56562	1.67766
1602.63706	1.62747
1600.70850	1.57912
1598.77993	1.53467
1596.85137	1.49297
1594.92280	1.45273
1592.99424	1.41399
1591.06567	1.37862
1589.13711	1.34618
1587.20854	1.31665
1585.27998	1.28947
1583.35142	1.26431
1581.42285	1.24191
1579.49429	1.22313
1577.56572	1.20666
1575.63716	1.18761
1573.70859	1.17100
1571.78003	1.16012
1569.85146	1.15010
1567.92290	1.14053
1565.99434	1.13401
1564.06577	1.12977
1562.13721	1.12718
1560.20864	1.12720
1558.28008	1.13329
1556.35151	1.14052
1554.42295	1.14429
1552.49438	1.14798
1550.56582	1.14992
1548.63726	1.14870
1546.70869	1.14415
1544.78013	1.13547
1542.85156	1.12248
1540.92300	1.10289
1538.99443	1.07227
1537.06587	1.04847
1535.13730	1.03153
1533.20874	1.00944
1531.28018	0.98595
1529.35161	0.96841
1527.42305	0.95187
1525.49448	0.93508
1523.56592	0.92096
1521.63735	0.90811
1519.70879	0.89577
1517.78022	0.88511
1515.85166	0.87242
1513.92310	0.85867
1511.99453	0.84613
1510.06597	0.83441
1508.13740	0.82289
1506.20884	0.80670
1504.28027	0.79294
1502.35171	0.78486
1500.42314	0.77769
1498.49458	0.77011
1496.56602	0.76145
1494.63745	0.75291
1492.70889	0.74622
1490.78032	0.74026
1488.85176	0.73377
1486.92319	0.72801
1484.99463	0.72361
1483.06606	0.72020
1481.13750	0.71749
1479.20894	0.71555
1477.28037	0.71460
1475.35181	0.71451
1473.42324	0.71509
1471.49468	0.71544
1469.56611	0.71445
1467.63755	0.71257
1465.70898	0.71074
1463.78042	0.70950
1461.85186	0.70890
1459.92329	0.70881
1457.99473	0.70926
1456.06616	0.70949
1454.13760	0.70808
1452.20903	0.70580
1450.28047	0.70316
1448.35190	0.70036
1446.42334	0.69743
1444.49478	0.69461
1442.56621	0.69188
1440.63765	0.68907
1438.70908	0.68610
1436.78052	0.68244
1434.85195	0.67835
1432.92339	0.67517
1430.99482	0.67315
1429.06626	0.67230
1427.13770	0.67235
1425.20913	0.67296
1423.28057	0.67401
1421.35200	0.67493
1419.42344	0.67559
1417.49487	0.67594
1415.56631	0.67551
1413.63774	0.67493
1411.70918	0.67498
1409.78062	0.67610
1407.85205	0.67791
1405.92349	0.67987
1403.99492	0.68155
1402.06636	0.68218
1400.13779	0.68162
1398.20923	0.67993
1396.28066	0.67708
1394.35210	0.67309
1392.42354	0.66850
1390.49497	0.66401
1388.56641	0.65936
1386.63784	0.65396
1384.70928	0.64810
1382.78071	0.64242
1380.85215	0.63720
1378.92358	0.63285
1376.99502	0.62956
1375.06646	0.62731
1373.13789	0.62599
1371.20933	0.62522
1369.28076	0.62458
1367.35220	0.62372
1365.42363	0.62226
1363.49507	0.62037
1361.56650	0.61857
1359.63794	0.61695
1357.70937	0.61537
1355.78081	0.61391
1353.85225	0.61276
1351.92368	0.61189
1349.99512	0.61117
1348.06655	0.61045
1346.13799	0.60952
1344.20942	0.60853
1342.28086	0.60770
1340.35229	0.60706
1338.42373	0.60640
1336.49517	0.60565
1334.56660	0.60518
1332.63804	0.60521
1330.70947	0.60555
1328.78091	0.60609
1326.85234	0.60683
1324.92378	0.60775
1322.99521	0.60883
1321.06665	0.60989
1319.13809	0.61074
1317.20952	0.61130
1315.28096	0.61149
1313.35239	0.61127
1311.42383	0.61075
1309.49526	0.61004
1307.56670	0.60935
1305.63813	0.60880
1303.70957	0.60825
1301.78101	0.60755
1299.85244	0.60658
1297.92388	0.60536
1295.99531	0.60393
1294.06675	0.60239
1292.13818	0.60088
1290.20962	0.59936
1288.28105	0.59787
1286.35249	0.59652
1284.42393	0.59528
1282.49536	0.59398
1280.56680	0.59252
1278.63823	0.59090
1276.70967	0.58933
1274.78110	0.58804
1272.85254	0.58709
1270.92397	0.58630
1268.99541	0.58551
1267.06685	0.58465
1265.13828	0.58367
1263.20972	0.58273
1261.28115	0.58194
1259.35259	0.58113
1257.42402	0.58033
1255.49546	0.57987
1253.56689	0.57980
1251.63833	0.58004
1249.70977	0.58046
1247.78120	0.58063
1245.85264	0.58039
1243.92407	0.57996
1241.99551	0.57923
1240.06694	0.57789
1238.13838	0.57588
1236.20981	0.57338
1234.28125	0.57070
1232.35269	0.56812
1230.42412	0.56573
1228.49556	0.56347
1226.56699	0.56125
1224.63843	0.55910
1222.70986	0.55713
1220.78130	0.55533
1218.85273	0.55361
1216.92417	0.55198
1214.99561	0.55063
1213.06704	0.54960
1211.13848	0.54879
1209.20991	0.54808
1207.28135	0.54738
1205.35278	0.54660
1203.42422	0.54562
1201.49565	0.54456
1199.56709	0.54358
1197.63853	0.54264
1195.70996	0.54172
1193.78140	0.54101
1191.85283	0.54052
1189.92427	0.54012
1187.99570	0.53977
1186.06714	0.53956
1184.13857	0.53956
1182.21001	0.53986
1180.28145	0.54062
1178.35288	0.54200
1176.42432	0.54377
1174.49575	0.54534
1172.56719	0.54634
1170.63862	0.54684
1168.71006	0.54708
1166.78149	0.54716
1164.85293	0.54724
1162.92437	0.54744
1160.99580	0.54750
1159.06724	0.54723
1157.13867	0.54662
1155.21011	0.54574
1153.28154	0.54450
1151.35298	0.54273
1149.42441	0.54045
1147.49585	0.53778
1145.56729	0.53481
1143.63872	0.53186
1141.71016	0.52941
1139.78159	0.52761
1137.85303	0.52633
1135.92446	0.52546
1133.99590	0.52502
1132.06733	0.52510
1130.13877	0.52543
1128.21021	0.52552
1126.28164	0.52519
1124.35308	0.52476
1122.42451	0.52443
1120.49595	0.52420
1118.56738	0.52427
1116.63882	0.52475
1114.71025	0.52529
1112.78169	0.52571
1110.85312	0.52634
1108.92456	0.52740
1106.99600	0.52864
1105.06743	0.52978
1103.13887	0.53080
1101.21030	0.53183
1099.28174	0.53323
1097.35317	0.53539
1095.42461	0.53828
1093.49604	0.54181
1091.56748	0.54631
1089.63892	0.55230
1087.71035	0.55966
1085.78179	0.56784
1083.85322	0.57625
1081.92466	0.58393
1079.99609	0.58960
1078.06753	0.59230
1076.13896	0.59184
1074.21040	0.58854
1072.28184	0.58289
1070.35327	0.57574
1068.42471	0.56806
1066.49614	0.56061
1064.56758	0.55402
1062.63901	0.54849
1060.71045	0.54372
1058.78188	0.53934
1056.85332	0.53525
1054.92476	0.53157
1052.99619	0.52836
1051.06763	0.52567
1049.13906	0.52383
1047.21050	0.52280
1045.28193	0.52217
1043.35337	0.52184
1041.42480	0.52164
1039.49624	0.52120
1037.56768	0.52069
1035.63911	0.52034
1033.71055	0.51984
1031.78198	0.51882
1029.85342	0.51722
1027.92485	0.51538
1025.99629	0.51375
1024.06772	0.51246
1022.13916	0.51154
1020.21060	0.51109
1018.28203	0.51102
1016.35347	0.51094
1014.42490	0.51061
1012.49634	0.51010
1010.56777	0.50976
1008.63921	0.50985
1006.71064	0.51027
1004.78208	0.51106
1002.85352	0.51270
1000.92495	0.51527
998.99639	0.51860
997.06782	0.52274
995.13926	0.52744
993.21069	0.53182
991.28213	0.53507
989.35356	0.53699
987.42500	0.53773
985.49644	0.53776
983.56787	0.53754
981.63931	0.53746
979.71074	0.53795
977.78218	0.53907
975.85361	0.54076
973.92505	0.54303
971.99648	0.54587
970.06792	0.54933
968.13936	0.55319
966.21079	0.55712
964.28223	0.56125
962.35366	0.56578
960.42510	0.57062
958.49653	0.57585
956.56797	0.58171
954.63940	0.58800
952.71084	0.59429
950.78228	0.60044
948.85371	0.60661
946.92515	0.61294
944.99658	0.61937
943.06802	0.62585
941.13945	0.63227
939.21089	0.63841
937.28232	0.64432
935.35376	0.65008
933.42520	0.65568
931.49663	0.66136
929.56807	0.66738
927.63950	0.67353
925.71094	0.67939
923.78237	0.68480
921.85381	0.69079
919.92524	0.69800
917.99668	0.70527
916.06812	0.71209
914.13955	0.71939
912.21099	0.72736
910.28242	0.73567
908.35386	0.74436
906.42529	0.75361
904.49673	0.76277
902.56816	0.77100
900.63960	0.77924
898.71104	0.78881
896.78247	0.79910
894.85391	0.80960
892.92534	0.82087
890.99678	0.83227
889.06821	0.84241
887.13965	0.85127
885.21108	0.86053
883.28252	0.87161
881.35396	0.88385
879.42539	0.89627
877.49683	0.90862
875.56826	0.92091
873.63970	0.93274
871.71113	0.94344
869.78257	0.95392
867.85400	0.96611
865.92544	0.97947
863.99687	0.99153
862.06831	1.00167
860.13975	1.01176
858.21118	1.02420
856.28262	1.03798
854.35405	1.05014
852.42549	1.06092
850.49692	1.07301
848.56836	1.08643
846.63979	1.09838
844.71123	1.10895
842.78267	1.12025
840.85410	1.13211
838.92554	1.14366
836.99697	1.15527
835.06841	1.16818
833.13984	1.18302
831.21128	1.19827
829.28271	1.21056
827.35415	1.22029
825.42559	1.23285
823.49702	1.24558
821.56846	1.24986
819.63989	1.25188
817.71133	1.26051
815.78276	1.27259
813.85420	1.28571
811.92563	1.30074
809.99707	1.31175
808.06851	1.31298
806.13994	1.31661
804.21138	1.33496
802.28281	1.36691
800.35425	1.41050
798.42568	1.45313
796.49712	1.46344
794.56855	1.46802
792.63999	1.51209
790.71143	1.53436
788.78286	1.50292
786.85430	1.49743
784.92573	1.54248
782.99717	1.59058
781.06860	1.58896
779.14004	1.58708
777.21147	1.62464
775.28291	1.63040
773.35435	1.57294
771.42578	1.53594
769.49722	1.55071
767.56865	1.56983
765.64009	1.48835
763.71152	1.34391
761.78296	1.25273
759.85439	1.24178
757.92583	1.28951
755.99727	1.35495
754.06870	1.38763
752.14014	1.33204
750.21157	1.26549
748.28301	1.28585
746.35444	1.35270
744.42588	1.40296
742.49731	1.51476
740.56875	1.43942
738.64019	1.16482
736.71162	0.99403
734.78306	0.84819
732.85449	0.71809
730.92593	0.68092
728.99736	0.67506
727.06880	0.55683
725.14023	0.43581
723.21167	0.40284
721.28311	0.48446
719.35454	0.62600
717.42598	0.59487
715.49741	0.72844
713.56885	0.92816
711.64028	0.19385
709.71172	-0.08304
707.78315	0.05182
705.85459	0.35334
703.92603	4.22356
701.99746	4.21198
700.06890	0.76166
698.14033	0.58096
696.21177	0.53924
694.28320	0.60329
692.35464	0.59895
690.42607	0.50365
688.49751	0.42880
686.56895	0.35282
684.64038	0.35393
682.71182	0.45530
680.78325	0.53236
678.85469	0.51949
676.92612	0.44662
674.99756	0.38387
673.06899	0.36995
671.14043	0.34013
669.21187	0.31675
667.28330	0.32036
665.35474	0.31751
663.42617	0.36480
661.49761	0.46030
659.56904	0.47551
657.64048	0.42759
655.71191	0.34119
653.78335	0.25826
651.85479	0.23644
649.92622	0.23734
647.99766	0.29024
646.06909	0.46639
644.14053	0.62496
642.21196	0.46781
640.28340	0.34295
638.35483	0.28957
636.42627	0.28043
634.49771	0.30096
632.56914	0.34255
630.64058	0.43118
628.71201	0.49574
626.78345	0.51605
624.85488	0.51214
622.92632	0.46107
620.99775	0.40771
619.06919	0.36935
617.14062	0.37449
615.21206	0.49836
613.28350	0.87310
611.35493	1.44133
609.42637	0.92731
607.49780	0.72254
605.56924	0.50076
603.64067	0.33572
601.71211	0.26811
599.78354	0.26646
597.85498	0.30736
595.92642	0.27504
593.99785	0.19026
592.06929	0.19893
590.14072	0.24967
588.21216	0.27515
586.28359	0.30524
584.35503	0.34151
582.42646	0.36708
580.49790	0.38921
578.56934	0.34510
576.64077	0.27643
574.71221	0.27900
572.78364	0.31250
570.85508	0.28401
568.92651	0.25122
566.99795	0.28626
565.06938	0.32217
563.14082	0.24791
561.21226	0.17017
559.28369	0.17500
557.35513	0.27107
555.42656	0.44146
553.49800	0.61421
551.56943	0.95276
549.64087	3.29785
547.71230	3.28627
545.78374	0.47139
543.85518	0.32291
541.92661	0.31566
539.99805	0.31804
538.06948	0.26320
536.14092	0.26242
534.21235	0.32650
532.28379	0.35547
530.35522	0.30063
528.42666	0.22335
526.49810	0.18729
524.56953	0.25522
522.64097	0.45119
520.71240	0.53480
518.78384	0.38802
516.85527	0.29484
514.92671	0.31454
512.99814	0.41422
511.06958	0.41591
509.14102	0.34312
507.21245	0.33769
505.28389	0.29717
503.35532	0.22378
501.42676	0.22227
499.49819	0.30458
