3997.91411	0.06011
3995.98555	0.06038
3994.05698	0.06090
3992.12842	0.06135
3990.19985	0.06167
3988.27129	0.06174
3986.34272	0.06188
3984.41416	0.06254
3982.48560	0.06321
3980.55703	0.06341
3978.62847	0.06344
3976.69990	0.06387
3974.77134	0.06459
3972.84277	0.06495
3970.91421	0.06489
3968.98564	0.06472
3967.05708	0.06431
3965.12852	0.06398
3963.19995	0.06450
3961.27139	0.06540
3959.34282	0.06557
3957.41426	0.06548
3955.48569	0.06570
3953.55713	0.06577
3951.62856	0.06631
3949.70000	0.06797
3947.77144	0.06911
3945.84287	0.06847
3943.91431	0.06798
3941.98574	0.06836
3940.05718	0.06750
3938.12861	0.06585
3936.20005	0.06541
3934.27148	0.06649
3932.34292	0.06855
3930.41436	0.06989
3928.48579	0.06916
3926.55723	0.06840
3924.62866	0.06935
3922.70010	0.06984
3920.77153	0.06872
3918.84297	0.06844
3916.91440	0.06929
3914.98584	0.06871
3913.05728	0.06657
3911.12871	0.06503
3909.20015	0.06490
3907.27158	0.06661
3905.34302	0.07078
3903.41445	0.07617
3901.48589	0.07913
3899.55732	0.07846
3897.62876	0.07499
3895.70020	0.07082
3893.77163	0.06973
3891.84307	0.07197
3889.91450	0.07287
3887.98594	0.07141
3886.05737	0.07203
3884.12881	0.07416
3882.20024	0.07501
3880.27168	0.07539
3878.34312	0.07376
3876.41455	0.07129
3874.48599	0.07227
3872.55742	0.07593
3870.62886	0.07936
3868.70029	0.08051
3866.77173	0.07894
3864.84316	0.07868
3862.91460	0.07946
3860.98604	0.07743
3859.05747	0.07492
3857.12891	0.07576
3855.20034	0.08066
3853.27178	0.08863
3851.34321	0.09059
3849.41465	0.08323
3847.48608	0.07693
3845.55752	0.07523
3843.62896	0.07792
3841.70039	0.08293
3839.77183	0.08799
3837.84326	0.09139
3835.91470	0.09078
3833.98613	0.08784
3832.05757	0.08553
3830.12900	0.08381
3828.20044	0.08309
3826.27187	0.08414
3824.34331	0.08623
3822.41475	0.09030
3820.48618	0.09648
3818.55762	0.09834
3816.62905	0.09662
3814.70049	0.09434
3812.77192	0.09017
3810.84336	0.08741
3808.91479	0.08863
3806.98623	0.09326
3805.05767	0.09769
3803.12910	0.10087
3801.20054	0.10512
3799.27197	0.10651
3797.34341	0.10436
3795.41484	0.10239
3793.48628	0.10002
3791.55771	0.09830
3789.62915	0.09854
3787.70059	0.10019
3785.77202	0.10295
3783.84346	0.10576
3781.91489	0.10764
3779.98633	0.11011
3778.05776	0.11269
3776.12920	0.11268
3774.20063	0.11212
3772.27207	0.11393
3770.34351	0.11820
3768.41494	0.12236
3766.48638	0.12425
3764.55781	0.12508
3762.62925	0.12602
3760.70068	0.12905
3758.77212	0.13474
3756.84355	0.13929
3754.91499	0.14177
3752.98643	0.14667
3751.05786	0.15583
3749.12930	0.16282
3747.20073	0.16319
3745.27217	0.16410
3743.34360	0.16712
3741.41504	0.16833
3739.48647	0.16969
3737.55791	0.17491
3735.62935	0.18524
3733.70078	0.19507
3731.77222	0.19654
3729.84365	0.19457
3727.91509	0.19560
3725.98652	0.20118
3724.05796	0.20902
3722.12939	0.21593
3720.20083	0.22142
3718.27227	0.22603
3716.34370	0.23110
3714.41514	0.23863
3712.48657	0.25178
3710.55801	0.27025
3708.62944	0.28407
3706.70088	0.29150
3704.77231	0.30029
3702.84375	0.31379
3700.91519	0.33139
3698.98662	0.34880
3697.05806	0.36529
3695.12949	0.38423
3693.20093	0.40570
3691.27236	0.43071
3689.34380	0.46234
3687.41523	0.49574
3685.48667	0.52154
3683.55811	0.54480
3681.62954	0.57284
3679.70098	0.60683
3677.77241	0.64425
3675.84385	0.68888
3673.91528	0.74396
3671.98672	0.78620
3670.05815	0.82497
3668.12959	0.87639
3666.20103	0.92032
3664.27246	0.95759
3662.34390	1.00011
3660.41533	1.04782
3658.48677	1.09592
3656.55820	1.14742
3654.62964	1.20399
3652.70107	1.25186
3650.77251	1.29664
3648.84395	1.35896
3646.91538	1.42758
3644.98682	1.47277
3643.05825	1.50792
3641.12969	1.54620
3639.20112	1.58952
3637.27256	1.63412
3635.34399	1.67883
3633.41543	1.72439
3631.48687	1.76783
3629.55830	1.81325
3627.62974	1.86950
3625.70117	1.91628
3623.77261	1.94699
3621.84404	1.97925
3619.91548	2.01866
3617.98691	2.06689
3616.05835	2.11243
3614.12979	2.15000
3612.20122	2.18902
3610.27266	2.22752
3608.34409	2.26635
3606.41553	2.30761
3604.48696	2.34504
3602.55840	2.37930
3600.62983	2.41893
3598.70127	2.46252
3596.77271	2.50357
3594.84414	2.54429
3592.91558	2.58522
3590.98701	2.62298
3589.05845	2.66052
3587.12988	2.70720
3585.20132	2.75507
3583.27275	2.79241
3581.34419	2.82776
3579.41562	2.86751
3577.48706	2.90985
3575.55850	2.95290
3573.62993	2.99742
3571.70137	3.04025
3569.77280	3.08152
3567.84424	3.12784
3565.91567	3.18438
3563.98711	3.23501
3562.05854	3.27270
3560.12998	3.31052
3558.20142	3.35306
3556.27285	3.39818
3554.34429	3.44312
3552.41572	3.49003
3550.48716	3.53893
3548.55859	3.58575
3546.63003	3.63161
3544.70146	3.68141
3542.77290	3.73086
3540.84434	3.77508
3538.91577	3.81810
3536.98721	3.86269
3535.05864	3.91120
3533.13008	3.96029
3531.20151	4.00747
3529.27295	4.05646
3527.34438	4.10701
3525.41582	4.15395
3523.48726	4.20080
3521.55869	4.25307
3519.63013	4.30410
3517.70156	4.34988
3515.77300	4.39460
3513.84443	4.44219
3511.91587	4.49152
3509.98730	4.54130
3508.05874	4.58956
3506.13018	4.63559
3504.20161	4.68157
3502.27305	4.73005
3500.34448	4.78447
3498.41592	4.83775
3496.48735	4.88172
3494.55879	4.92134
3492.63022	4.96733
3490.70166	5.02305
3488.77310	5.08064
3486.84453	5.12977
3484.91597	5.17405
3482.98740	5.22148
3481.05884	5.26668
3479.13027	5.31025
3477.20171	5.36039
3475.27314	5.41290
3473.34458	5.46378
3471.41602	5.51565
3469.48745	5.56627
3467.55889	5.61232
3465.63032	5.65974
3463.70176	5.71213
3461.77319	5.76087
3459.84463	5.80538
3457.91606	5.85149
3455.98750	5.90299
3454.05894	5.96105
3452.13037	6.02211
3450.20181	6.07856
3448.27324	6.12073
3446.34468	6.15538
3444.41611	6.20522
3442.48755	6.27809
3440.55898	6.34113
3438.63042	6.37515
3436.70186	6.40337
3434.77329	6.44575
3432.84473	6.49521
3430.91616	6.53584
3428.98760	6.58439
3427.05903	6.65346
3425.13047	6.72538
3423.20190	6.78085
3421.27334	6.82981
3419.34478	6.88098
3417.41621	6.92640
3415.48765	6.97089
3413.55908	7.01219
3411.63052	7.03960
3409.70195	7.06095
3407.77339	7.10477
3405.84482	7.18049
3403.91626	7.27339
3401.98770	7.32803
3400.05913	7.33538
3398.13057	7.34296
3396.20200	7.34608
3394.27344	7.35109
3392.34487	7.39916
3390.41631	7.49631
3388.48774	7.57911
3386.55918	7.62383
3384.63062	7.62038
3382.70205	7.57373
3380.77349	7.57463
3378.84492	7.67368
3376.91636	7.79426
3374.98779	7.81677
3373.05923	7.78560
3371.13066	7.79844
3369.20210	7.86987
3367.27354	7.92626
3365.34497	7.92094
3363.41641	7.90848
3361.48784	7.92072
3359.55928	7.92025
3357.63071	7.89742
3355.70215	7.90503
3353.77358	7.94244
3351.84502	8.00825
3349.91646	8.08561
3347.98789	8.17089
3346.05933	8.22342
3344.13076	8.17975
3342.20220	8.15431
3340.27363	8.20194
3338.34507	8.23456
3336.41650	8.20432
3334.48794	8.17736
3332.55937	8.16556
3330.63081	8.14145
3328.70225	8.11967
3326.77368	8.15950
3324.84512	8.26096
3322.91655	8.25727
3320.98799	8.14748
3319.05942	8.11761
3317.13086	8.21586
3315.20229	8.31997
3313.27373	8.34141
3311.34517	8.28724
3309.41660	8.21501
3307.48804	8.18833
3305.55947	8.20469
3303.63091	8.25416
3301.70234	8.29094
3299.77378	8.28164
3297.84521	8.21592
3295.91665	8.13803
3293.98809	8.13296
3292.05952	8.23431
3290.13096	8.34929
3288.20239	8.32693
3286.27383	8.21928
3284.34526	8.13478
3282.41670	8.09110
3280.48813	8.08865
3278.55957	8.16113
3276.63101	8.26296
3274.70244	8.34334
3272.77388	8.46346
3270.84531	8.56005
3268.91675	8.50660
3266.98818	8.36448
3265.05962	8.26807
3263.13105	8.26111
3261.20249	8.30451
3259.27393	8.30399
3257.34536	8.29713
3255.41680	8.40062
3253.48823	8.50304
3251.55967	8.43123
3249.63110	8.28209
3247.70254	8.22301
3245.77397	8.23293
3243.84541	8.21517
3241.91685	8.21975
3239.98828	8.26587
3238.05972	8.27352
3236.13115	8.27177
3234.20259	8.27972
3232.27402	8.26204
3230.34546	8.22052
3228.41689	8.16129
3226.48833	8.12142
3224.55977	8.08756
3222.63120	8.04893
3220.70264	8.06866
3218.77407	8.14969
3216.84551	8.22890
3214.91694	8.27610
3212.98838	8.25572
3211.05981	8.15558
3209.13125	8.08223
3207.20269	8.04531
3205.27412	7.96428
3203.34556	7.89691
3201.41699	7.87319
3199.48843	7.83061
3197.55986	7.76376
3195.63130	7.70414
3193.70273	7.67251
3191.77417	7.64772
3189.84561	7.61612
3187.91704	7.59385
3185.98848	7.56808
3184.05991	7.52390
3182.13135	7.46742
3180.20278	7.41034
3178.27422	7.34304
3176.34565	7.24622
3174.41709	7.15601
3172.48853	7.13431
3170.55996	7.14543
3168.63140	7.11482
3166.70283	7.06515
3164.77427	7.00421
3162.84570	6.91968
3160.91714	6.86492
3158.98857	6.82358
3157.06001	6.72926
3155.13145	6.62879
3153.20288	6.56855
3151.27432	6.51788
3149.34575	6.45168
3147.41719	6.37728
3145.48862	6.30726
3143.56006	6.23841
3141.63149	6.17206
3139.70293	6.11763
3137.77437	6.06450
3135.84580	5.99091
3133.91724	5.90336
3131.98867	5.81819
3130.06011	5.73680
3128.13154	5.65718
3126.20298	5.58107
3124.27441	5.51457
3122.34585	5.45191
3120.41729	5.38240
3118.48872	5.30727
3116.56016	5.23484
3114.63159	5.16632
3112.70303	5.09378
3110.77446	5.01397
3108.84590	4.93374
3106.91733	4.86369
3104.98877	4.80345
3103.06021	4.74255
3101.13164	4.67359
3099.20308	4.59931
3097.27451	4.52852
3095.34595	4.46399
3093.41738	4.40008
3091.48882	4.33361
3089.56025	4.26791
3087.63169	4.20342
3085.70312	4.13755
3083.77456	4.07016
3081.84600	4.00305
3079.91743	3.93797
3077.98887	3.87618
3076.06030	3.81696
3074.13174	3.75835
3072.20317	3.69842
3070.27461	3.63629
3068.34604	3.57542
3066.41748	3.51805
3064.48892	3.46203
3062.56035	3.40514
3060.63179	3.34813
3058.70322	3.29339
3056.77466	3.24002
3054.84609	3.18538
3052.91753	3.12982
3050.98896	3.07550
3049.06040	3.02308
3047.13184	2.97221
3045.20327	2.92249
3043.27471	2.87287
3041.34614	2.82331
3039.41758	2.77505
3037.48901	2.72807
3035.56045	2.68165
3033.63188	2.63558
3031.70332	2.58915
3029.77476	2.54276
3027.84619	2.49810
3025.91763	2.45503
3023.98906	2.41251
3022.06050	2.37026
3020.13193	2.32852
3018.20337	2.28738
3016.27480	2.24632
3014.34624	2.20571
3012.41768	2.16648
3010.48911	2.12815
3008.56055	2.09034
3006.63198	2.05319
3004.70342	2.01638
3002.77485	1.98012
3000.84629	1.94470
2998.91772	1.91020
2996.98916	1.87656
2995.06060	1.84303
2993.13203	1.80968
2991.20347	1.77713
2989.27490	1.74469
2987.34634	1.71223
2985.41777	1.68078
2983.48921	1.65046
2981.56064	1.62088
2979.63208	1.59161
2977.70352	1.56258
2975.77495	1.53403
2973.84639	1.50552
2971.91782	1.47697
2969.98926	1.44907
2968.06069	1.42187
2966.13213	1.39502
2964.20356	1.36862
2962.27500	1.34295
2960.34644	1.31780
2958.41787	1.29282
2956.48931	1.26817
2954.56074	1.24419
2952.63218	1.22099
2950.70361	1.19851
2948.77505	1.17657
2946.84648	1.15479
2944.91792	1.13303
2942.98936	1.11144
2941.06079	1.08997
2939.13223	1.06855
2937.20366	1.04741
2935.27510	1.02700
2933.34653	1.00763
2931.41797	0.98913
2929.48940	0.97102
2927.56084	0.95279
2925.63228	0.93441
2923.70371	0.91667
2921.77515	0.89991
2919.84658	0.88364
2917.91802	0.86726
2915.98945	0.85092
2914.06089	0.83533
2912.13232	0.82068
2910.20376	0.80651
2908.27520	0.79249
2906.34663	0.77871
2904.41807	0.76547
2902.48950	0.75289
2900.56094	0.74043
2898.63237	0.72770
2896.70381	0.71501
2894.77524	0.70252
2892.84668	0.69014
2890.91812	0.67818
2888.98955	0.66697
2887.06099	0.65610
2885.13242	0.64506
2883.20386	0.63404
2881.27529	0.62327
2879.34673	0.61266
2877.41816	0.60211
2875.48960	0.59152
2873.56104	0.58090
2871.63247	0.57067
2869.70391	0.56074
2867.77534	0.55071
2865.84678	0.54081
2863.91821	0.53116
2861.98965	0.52146
2860.06108	0.51181
2858.13252	0.50246
2856.20396	0.49354
2854.27539	0.48496
2852.34683	0.47650
2850.41826	0.46836
2848.48970	0.46059
2846.56113	0.45305
2844.63257	0.44603
2842.70400	0.43981
2840.77544	0.43413
2838.84687	0.42857
2836.91831	0.42293
2834.98975	0.41722
2833.06118	0.41154
2831.13262	0.40585
2829.20405	0.40010
2827.27549	0.39437
2825.34692	0.38862
2823.41836	0.38284
2821.48979	0.37710
2819.56123	0.37136
2817.63267	0.36563
2815.70410	0.36004
2813.77554	0.35463
2811.84697	0.34943
2809.91841	0.34438
2807.98984	0.33929
2806.06128	0.33412
2804.13271	0.32896
2802.20415	0.32396
2800.27559	0.31912
2798.34702	0.31450
2796.41846	0.31017
2794.48989	0.30590
2792.56133	0.30154
2790.63276	0.29721
2788.70420	0.29298
2786.77563	0.28878
2784.84707	0.28466
2782.91851	0.28067
2780.98994	0.27679
2779.06138	0.27304
2777.13281	0.26947
2775.20425	0.26601
2773.27568	0.26247
2771.34712	0.25888
2769.41855	0.25544
2767.48999	0.25206
2765.56143	0.24869
2763.63286	0.24545
2761.70430	0.24234
2759.77573	0.23922
2757.84717	0.23625
2755.91860	0.23357
2753.99004	0.23086
2752.06147	0.22792
2750.13291	0.22506
2748.20435	0.22234
2746.27578	0.21962
2744.34722	0.21700
2742.41865	0.21450
2740.49009	0.21208
2738.56152	0.20981
2736.63296	0.20755
2734.70439	0.20518
2732.77583	0.20280
2730.84727	0.20049
2728.91870	0.19834
2726.99014	0.19641
2725.06157	0.19454
2723.13301	0.19254
2721.20444	0.19042
2719.27588	0.18839
2717.34731	0.18663
2715.41875	0.18495
2713.49019	0.18325
2711.56162	0.18152
2709.63306	0.17981
2707.70449	0.17821
2705.77593	0.17669
2703.84736	0.17524
2701.91880	0.17386
2699.99023	0.17239
2698.06167	0.17076
2696.13311	0.16924
2694.20454	0.16795
2692.27598	0.16673
2690.34741	0.16552
2688.41885	0.16438
2686.49028	0.16320
2684.56172	0.16189
2682.63315	0.16057
2680.70459	0.15941
2678.77603	0.15839
2676.84746	0.15735
2674.91890	0.15626
2672.99033	0.15518
2671.06177	0.15414
2669.13320	0.15319
2667.20464	0.15233
2665.27607	0.15153
2663.34751	0.15080
2661.41895	0.15002
2659.49038	0.14917
2657.56182	0.14846
2655.63325	0.14785
2653.70469	0.14724
2651.77612	0.14669
2649.84756	0.14617
2647.91899	0.14555
2645.99043	0.14490
2644.06187	0.14440
2642.13330	0.14401
2640.20474	0.14354
2638.27617	0.14297
2636.34761	0.14250
2634.41904	0.14227
2632.49048	0.14208
2630.56191	0.14178
2628.63335	0.14144
2626.70479	0.14111
2624.77622	0.14081
2622.84766	0.14063
2620.91909	0.14050
2618.99053	0.14031
2617.06196	0.14014
2615.13340	0.14002
2613.20483	0.13986
2611.27627	0.13973
2609.34771	0.13970
2607.41914	0.13968
2605.49058	0.13967
2603.56201	0.13975
2601.63345	0.13990
2599.70488	0.14005
2597.77632	0.14019
2595.84775	0.14035
2593.91919	0.14053
2591.99062	0.14067
2590.06206	0.14080
2588.13350	0.14106
2586.20493	0.14151
2584.27637	0.14190
2582.34780	0.14215
2580.41924	0.14243
2578.49067	0.14277
2576.56211	0.14308
2574.63354	0.14346
2572.70498	0.14391
2570.77642	0.14441
2568.84785	0.14500
2566.91929	0.14553
2564.99072	0.14589
2563.06216	0.14620
2561.13359	0.14663
2559.20503	0.14718
2557.27646	0.14783
2555.34790	0.14847
2553.41934	0.14901
2551.49077	0.14955
2549.56221	0.15020
2547.63364	0.15089
2545.70508	0.15154
2543.77651	0.15219
2541.84795	0.15287
2539.91938	0.15349
2537.99082	0.15415
2536.06226	0.15496
2534.13369	0.15579
2532.20513	0.15652
2530.27656	0.15723
2528.34800	0.15801
2526.41943	0.15877
2524.49087	0.15946
2522.56230	0.16021
2520.63374	0.16113
2518.70518	0.16206
2516.77661	0.16281
2514.84805	0.16349
2512.91948	0.16425
2510.99092	0.16511
2509.06235	0.16606
2507.13379	0.16706
2505.20522	0.16797
2503.27666	0.16878
2501.34810	0.16970
2499.41953	0.17080
2497.49097	0.17188
2495.56240	0.17276
2493.63384	0.17344
2491.70527	0.17415
2489.77671	0.17504
2487.84814	0.17606
2485.91958	0.17712
2483.99102	0.17814
2482.06245	0.17907
2480.13389	0.17992
2478.20532	0.18079
2476.27676	0.18176
2474.34819	0.18275
2472.41963	0.18370
2470.49106	0.18465
2468.56250	0.18568
2466.63394	0.18682
2464.70537	0.18800
2462.77681	0.18906
2460.84824	0.18998
2458.91968	0.19087
2456.99111	0.19186
2455.06255	0.19288
2453.13398	0.19378
2451.20542	0.19473
2449.27686	0.19583
2447.34829	0.19694
2445.41973	0.19800
2443.49116	0.19907
2441.56260	0.20011
2439.63403	0.20114
2437.70547	0.20222
2435.77690	0.20339
2433.84834	0.20456
2431.91978	0.20566
2429.99121	0.20673
2428.06265	0.20778
2426.13408	0.20883
2424.20552	0.20994
2422.27695	0.21107
2420.34839	0.21224
2418.41982	0.21347
2416.49126	0.21469
2414.56270	0.21584
2412.63413	0.21704
2410.70557	0.21837
2408.77700	0.21972
2406.84844	0.22095
2404.91987	0.22215
2402.99131	0.22335
2401.06274	0.22453
2399.13418	0.22575
2397.20562	0.22699
2395.27705	0.22821
2393.34849	0.22952
2391.41992	0.23089
2389.49136	0.23230
2387.56279	0.23410
2385.63423	0.23655
2383.70566	0.23976
2381.77710	0.24384
2379.84854	0.24862
2377.91997	0.25386
2375.99141	0.25987
2374.06284	0.26707
2372.13428	0.27542
2370.20571	0.28417
2368.27715	0.29245
2366.34858	0.30019
2364.42002	0.30742
2362.49146	0.31378
2360.56289	0.31839
2358.63433	0.31992
2356.70576	0.31738
2354.77720	0.31211
2352.84863	0.30629
2350.92007	0.30015
2348.99150	0.29600
2347.06294	0.29652
2345.13437	0.30256
2343.20581	0.31090
2341.27725	0.31589
2339.34868	0.31755
2337.42012	0.31833
2335.49155	0.31895
2333.56299	0.31900
2331.63442	0.31908
2329.70586	0.31952
2327.77729	0.31979
2325.84873	0.31949
2323.92017	0.31866
2321.99160	0.31753
2320.06304	0.31615
2318.13447	0.31463
2316.20591	0.31347
2314.27734	0.31322
2312.34878	0.31366
2310.42021	0.31403
2308.49165	0.31398
2306.56309	0.31367
2304.63452	0.31345
2302.70596	0.31378
2300.77739	0.31469
2298.84883	0.31575
2296.92026	0.31671
2294.99170	0.31767
2293.06313	0.31865
2291.13457	0.31965
2289.20601	0.32086
2287.27744	0.32222
2285.34888	0.32353
2283.42031	0.32501
2281.49175	0.32691
2279.56318	0.32924
2277.63462	0.33161
2275.70605	0.33379
2273.77749	0.33591
2271.84893	0.33804
2269.92036	0.34016
2267.99180	0.34231
2266.06323	0.34446
2264.13467	0.34652
2262.20610	0.34862
2260.27754	0.35085
2258.34897	0.35298
2256.42041	0.35479
2254.49185	0.35661
2252.56328	0.35874
2250.63472	0.36091
2248.70615	0.36306
2246.77759	0.36532
2244.84902	0.36759
2242.92046	0.36974
2240.99189	0.37180
2239.06333	0.37388
2237.13477	0.37606
2235.20620	0.37829
2233.27764	0.38048
2231.34907	0.38263
2229.42051	0.38498
2227.49194	0.38753
2225.56338	0.38996
2223.63481	0.39217
2221.70625	0.39433
2219.77769	0.39647
2217.84912	0.39862
2215.92056	0.40092
2213.99199	0.40323
2212.06343	0.40532
2210.13486	0.40742
2208.20630	0.40966
2206.27773	0.41190
2204.34917	0.41404
2202.42061	0.41611
2200.49204	0.41815
2198.56348	0.42017
2196.63491	0.42220
2194.70635	0.42429
2192.77778	0.42641
2190.84922	0.42848
2188.92065	0.43038
2186.99209	0.43209
2185.06353	0.43379
2183.13496	0.43560
2181.20640	0.43742
2179.27783	0.43915
2177.34927	0.44081
2175.42070	0.44238
2173.49214	0.44388
2171.56357	0.44536
2169.63501	0.44677
2167.70645	0.44811
2165.77788	0.44945
2163.84932	0.45080
2161.92075	0.45210
2159.99219	0.45322
2158.06362	0.45421
2156.13506	0.45516
2154.20649	0.45605
2152.27793	0.45681
2150.34937	0.45748
2148.42080	0.45817
2146.49224	0.45889
2144.56367	0.45954
2142.63511	0.46009
2140.70654	0.46056
2138.77798	0.46088
2136.84941	0.46106
2134.92085	0.46118
2132.99229	0.46119
2131.06372	0.46105
2129.13516	0.46087
2127.20659	0.46063
2125.27803	0.46029
2123.34946	0.45989
2121.42090	0.45952
2119.49233	0.45912
2117.56377	0.45852
2115.63521	0.45771
2113.70664	0.45687
2111.77808	0.45610
2109.84951	0.45524
2107.92095	0.45418
2105.99238	0.45307
2104.06382	0.45199
2102.13525	0.45077
2100.20669	0.44937
2098.27812	0.44789
2096.34956	0.44640
2094.42100	0.44489
2092.49243	0.44333
2090.56387	0.44169
2088.63530	0.43987
2086.70674	0.43798
2084.77817	0.43615
2082.84961	0.43436
2080.92104	0.43246
2078.99248	0.43042
2077.06392	0.42825
2075.13535	0.42604
2073.20679	0.42389
2071.27822	0.42167
2069.34966	0.41940
2067.42109	0.41724
2065.49253	0.41509
2063.56396	0.41263
2061.63540	0.40995
2059.70684	0.40734
2057.77827	0.40480
2055.84971	0.40224
2053.92114	0.39966
2051.99258	0.39712
2050.06401	0.39461
2048.13545	0.39208
2046.20688	0.38938
2044.27832	0.38664
2042.34976	0.38403
2040.42119	0.38136
2038.49263	0.37858
2036.56406	0.37577
2034.63550	0.37289
2032.70693	0.37001
2030.77837	0.36726
2028.84980	0.36454
2026.92124	0.36178
2024.99268	0.35904
2023.06411	0.35625
2021.13555	0.35342
2019.20698	0.35080
2017.27842	0.34823
2015.34985	0.34530
2013.42129	0.34219
2011.49272	0.33928
2009.56416	0.33654
2007.63560	0.33380
2005.70703	0.33107
2003.77847	0.32836
2001.84990	0.32566
1999.92134	0.32305
1997.99277	0.32048
1996.06421	0.31791
1994.13564	0.31562
1992.20708	0.31354
1990.27852	0.31103
1988.34995	0.30811
1986.42139	0.30526
1984.49282	0.30260
1982.56426	0.30012
1980.63569	0.29768
1978.70713	0.29527
1976.77856	0.29299
1974.85000	0.29079
1972.92144	0.28858
1970.99287	0.28649
1969.06431	0.28480
1967.13574	0.28318
1965.20718	0.28096
1963.27861	0.27847
1961.35005	0.27627
1959.42148	0.27426
1957.49292	0.27236
1955.56436	0.27056
1953.63579	0.26871
1951.70723	0.26683
1949.77866	0.26516
1947.85010	0.26379
1945.92153	0.26270
1943.99297	0.26192
1942.06440	0.26081
1940.13584	0.25869
1938.20728	0.25647
1936.27871	0.25486
1934.35015	0.25357
1932.42158	0.25230
1930.49302	0.25098
1928.56445	0.24974
1926.63589	0.24869
1924.70732	0.24816
1922.77876	0.24787
1920.85020	0.24705
1918.92163	0.24609
1916.99307	0.24510
1915.06450	0.24361
1913.13594	0.24234
1911.20737	0.24184
1909.27881	0.24157
1907.35024	0.24081
1905.42168	0.23972
1903.49312	0.23884
1901.56455	0.23813
1899.63599	0.23749
1897.70742	0.23715
1895.77886	0.23714
1893.85029	0.23700
1891.92173	0.23679
1889.99316	0.23697
1888.06460	0.23671
1886.13604	0.23579
1884.20747	0.23508
1882.27891	0.23471
1880.35034	0.23455
1878.42178	0.23449
1876.49321	0.23448
1874.56465	0.23453
1872.63608	0.23497
1870.70752	0.23638
1868.77896	0.23841
1866.85039	0.23869
1864.92183	0.23710
1862.99326	0.23599
1861.06470	0.23595
1859.13613	0.23643
1857.20757	0.23679
1855.27900	0.23710
1853.35044	0.23753
1851.42187	0.23819
1849.49331	0.23920
1847.56475	0.24069
1845.63618	0.24263
1843.70762	0.24425
1841.77905	0.24413
1839.85049	0.24342
1837.92192	0.24381
1835.99336	0.24476
1834.06479	0.24570
1832.13623	0.24738
1830.20767	0.25020
1828.27910	0.25215
1826.35054	0.25264
1824.42197	0.25335
1822.49341	0.25384
1820.56484	0.25436
1818.63628	0.25559
1816.70771	0.25722
1814.77915	0.25884
1812.85059	0.26104
1810.92202	0.26382
1808.99346	0.26596
1807.06489	0.26737
1805.13633	0.26905
1803.20776	0.27183
1801.27920	0.27539
1799.35063	0.27864
1797.42207	0.28098
1795.49351	0.28357
1793.56494	0.28741
1791.63638	0.29176
1789.70781	0.29404
1787.77925	0.29513
1785.85068	0.29781
1783.92212	0.30189
1781.99355	0.30648
1780.06499	0.31113
1778.13643	0.31538
1776.20786	0.31967
1774.27930	0.32540
1772.35073	0.33312
1770.42217	0.33950
1768.49360	0.34319
1766.56504	0.34683
1764.63647	0.35165
1762.70791	0.35827
1760.77935	0.36642
1758.85078	0.37338
1756.92222	0.38041
1754.99365	0.38814
1753.06509	0.39574
1751.13652	0.40594
1749.20796	0.41818
1747.27939	0.42838
1745.35083	0.43661
1743.42227	0.44568
1741.49370	0.45606
1739.56514	0.46838
1737.63657	0.48083
1735.70801	0.49272
1733.77944	0.51085
1731.85088	0.53026
1729.92231	0.54421
1727.99375	0.55857
1726.06519	0.57489
1724.13662	0.59375
1722.20806	0.61456
1720.27949	0.63470
1718.35093	0.65942
1716.42236	0.69358
1714.49380	0.72298
1712.56523	0.74576
1710.63667	0.76866
1708.70811	0.79472
1706.77954	0.82550
1704.85098	0.86157
1702.92241	0.89304
1700.99385	0.92463
1699.06528	0.97106
1697.13672	1.01212
1695.20815	1.05190
1693.27959	1.09030
1691.35103	1.12221
1689.42246	1.16000
1687.49390	1.20029
1685.56533	1.24002
1683.63677	1.29845
1681.70820	1.35574
1679.77964	1.39217
1677.85107	1.42803
1675.92251	1.47047
1673.99395	1.52241
1672.06538	1.56808
1670.13682	1.61232
1668.20825	1.66703
1666.27969	1.71021
1664.35112	1.74783
1662.42256	1.79462
1660.49399	1.84485
1658.56543	1.88385
1656.63687	1.91734
1654.70830	1.95031
1652.77974	2.00319
1650.85117	2.05578
1648.92261	2.07912
1646.99404	2.10896
1645.06548	2.14061
1643.13691	2.16023
1641.20835	2.17324
1639.27979	2.18691
1637.35122	2.19831
1635.42266	2.20283
1633.49409	2.19767
1631.56553	2.18668
1629.63696	2.17386
1627.70840	2.15189
1625.77983	2.12481
1623.85127	2.08958
1621.92271	2.04512
1619.99414	2.00387
1618.06558	1.96362
1616.13701	1.90615
1614.20845	1.84543
1612.27988	1.79906
1610.35132	1.75170
1608.42275	1.69988
1606.49419	1.64792
1604.56562	1.59975
1602.63706	1.55292
1600.70850	1.50633
1598.77993	1.46307
1596.85137	1.42284
1594.92280	1.38384
1592.99424	1.34561
1591.06567	1.31021
1589.13711	1.27667
1587.20854	1.24483
1585.27998	1.21515
1583.35142	1.18710
1581.42285	1.16087
1579.49429	1.13848
1577.56572	1.11903
1575.63716	1.09420
1573.70859	1.06948
1571.78003	1.05256
1569.85146	1.03560
1567.92290	1.01545
1565.99434	0.99828
1564.06577	0.98384
1562.13721	0.97245
1560.20864	0.96470
1558.28008	0.95056
1556.35151	0.93220
1554.42295	0.91911
1552.49438	0.90744
1550.56582	0.89669
1548.63726	0.88568
1546.70869	0.87606
1544.78013	0.86890
1542.85156	0.86307
1540.92300	0.85548
1538.99443	0.83998
1537.06587	0.82582
1535.13730	0.81764
1533.20874	0.80926
1531.28018	0.79914
1529.35161	0.79135
1527.42305	0.78546
1525.49448	0.77976
1523.56592	0.77448
1521.63735	0.76893
1519.70879	0.76164
1517.78022	0.75487
1515.85166	0.74768
1513.92310	0.74008
1511.99453	0.73461
1510.06597	0.73174
1508.13740	0.73093
1506.20884	0.72597
1504.28027	0.71582
1502.35171	0.70933
1500.42314	0.70593
1498.49458	0.70384
1496.56602	0.70052
1494.63745	0.69545
1492.70889	0.69182
1490.78032	0.69063
1488.85176	0.68905
1486.92319	0.68446
1484.99463	0.67930
1483.06606	0.67565
1481.13750	0.67329
1479.20894	0.67138
1477.28037	0.67008
1475.35181	0.66964
1473.42324	0.66915
1471.49468	0.66577
1469.56611	0.66041
1467.63755	0.65678
1465.70898	0.65514
1463.78042	0.65336
1461.85186	0.65110
1459.92329	0.65058
1457.99473	0.65184
1456.06616	0.65007
1454.13760	0.64457
1452.20903	0.64028
1450.28047	0.63748
1448.35190	0.63543
1446.42334	0.63307
1444.49478	0.63049
1442.56621	0.62844
1440.63765	0.62707
1438.70908	0.62662
1436.78052	0.62661
1434.85195	0.62517
1432.92339	0.62290
1430.99482	0.62137
1429.06626	0.61995
1427.13770	0.61830
1425.20913	0.61737
1423.28057	0.61696
1421.35200	0.61649
1419.42344	0.61646
1417.49487	0.61534
1415.56631	0.61213
1413.63774	0.60920
1411.70918	0.60733
1409.78062	0.60581
1407.85205	0.60441
1405.92349	0.60342
1403.99492	0.60222
1402.06636	0.60058
1400.13779	0.59953
1398.20923	0.59893
1396.28066	0.59784
1394.35210	0.59584
1392.42354	0.59314
1390.49497	0.59102
1388.56641	0.59005
1386.63784	0.58895
1384.70928	0.58668
1382.78071	0.58438
1380.85215	0.58296
1378.92358	0.58219
1376.99502	0.58183
1375.06646	0.58171
1373.13789	0.58094
1371.20933	0.57953
1369.28076	0.57845
1367.35220	0.57751
1365.42363	0.57669
1363.49507	0.57647
1361.56650	0.57589
1359.63794	0.57413
1357.70937	0.57244
1355.78081	0.57143
1353.85225	0.57057
1351.92368	0.56951
1349.99512	0.56842
1348.06655	0.56735
1346.13799	0.56621
1344.20942	0.56521
1342.28086	0.56480
1340.35229	0.56492
1338.42373	0.56432
1336.49517	0.56256
1334.56660	0.56078
1332.63804	0.55951
1330.70947	0.55860
1328.78091	0.55791
1326.85234	0.55734
1324.92378	0.55682
1322.99521	0.55635
1321.06665	0.55593
1319.13809	0.55551
1317.20952	0.55485
1315.28096	0.55399
1313.35239	0.55308
1311.42383	0.55209
1309.49526	0.55105
1307.56670	0.54997
1305.63813	0.54888
1303.70957	0.54784
1301.78101	0.54674
1299.85244	0.54561
1297.92388	0.54469
1295.99531	0.54391
1294.06675	0.54305
1292.13818	0.54217
1290.20962	0.54143
1288.28105	0.54087
1286.35249	0.54033
1284.42393	0.53975
1282.49536	0.53921
1280.56680	0.53869
1278.63823	0.53806
1276.70967	0.53734
1274.78110	0.53669
1272.85254	0.53616
1270.92397	0.53572
1268.99541	0.53529
1267.06685	0.53481
1265.13828	0.53429
1263.20972	0.53396
1261.28115	0.53380
1259.35259	0.53348
1257.42402	0.53310
1255.49546	0.53289
1253.56689	0.53270
1251.63833	0.53242
1249.70977	0.53220
1247.78120	0.53201
1245.85264	0.53170
1243.92407	0.53136
1241.99551	0.53099
1240.06694	0.53053
1238.13838	0.52989
1236.20981	0.52902
1234.28125	0.52818
1232.35269	0.52755
1230.42412	0.52700
1228.49556	0.52638
1226.56699	0.52564
1224.63843	0.52484
1222.70986	0.52407
1220.78130	0.52333
1218.85273	0.52247
1216.92417	0.52163
1214.99561	0.52095
1213.06704	0.52027
1211.13848	0.51955
1209.20991	0.51898
1207.28135	0.51857
1205.35278	0.51809
1203.42422	0.51750
1201.49565	0.51693
1199.56709	0.51637
1197.63853	0.51579
1195.70996	0.51523
1193.78140	0.51470
1191.85283	0.51419
1189.92427	0.51361
1187.99570	0.51313
1186.06714	0.51290
1184.13857	0.51277
1182.21001	0.51270
1180.28145	0.51284
1178.35288	0.51323
1176.42432	0.51375
1174.49575	0.51427
1172.56719	0.51478
1170.63862	0.51531
1168.71006	0.51580
1166.78149	0.51623
1164.85293	0.51672
1162.92437	0.51722
1160.99580	0.51750
1159.06724	0.51748
1157.13867	0.51724
1155.21011	0.51668
1153.28154	0.51564
1151.35298	0.51422
1149.42441	0.51252
1147.49585	0.51052
1145.56729	0.50817
1143.63872	0.50558
1141.71016	0.50321
1139.78159	0.50124
1137.85303	0.49939
1135.92446	0.49751
1133.99590	0.49582
1132.06733	0.49462
1130.13877	0.49378
1128.21021	0.49291
1126.28164	0.49196
1124.35308	0.49108
1122.42451	0.49029
1120.49595	0.48956
1118.56738	0.48904
1116.63882	0.48897
1114.71025	0.48931
1112.78169	0.48990
1110.85312	0.49060
1108.92456	0.49128
1106.99600	0.49185
1105.06743	0.49246
1103.13887	0.49342
1101.21030	0.49486
1099.28174	0.49660
1097.35317	0.49870
1095.42461	0.50143
1093.49604	0.50506
1091.56748	0.50976
1089.63892	0.51554
1087.71035	0.52234
1085.78179	0.53000
1083.85322	0.53787
1081.92466	0.54493
1079.99609	0.55058
1078.06753	0.55412
1076.13896	0.55459
1074.21040	0.55178
1072.28184	0.54661
1070.35327	0.54011
1068.42471	0.53318
1066.49614	0.52670
1064.56758	0.52091
1062.63901	0.51549
1060.71045	0.51049
1058.78188	0.50602
1056.85332	0.50196
1054.92476	0.49854
1052.99619	0.49593
1051.06763	0.49402
1049.13906	0.49277
1047.21050	0.49205
1045.28193	0.49174
1043.35337	0.49170
1041.42480	0.49174
1039.49624	0.49184
1037.56768	0.49186
1035.63911	0.49164
1033.71055	0.49129
1031.78198	0.49064
1029.85342	0.48960
1027.92485	0.48861
1025.99629	0.48787
1024.06772	0.48746
1022.13916	0.48748
1020.21060	0.48772
1018.28203	0.48798
1016.35347	0.48834
1014.42490	0.48889
1012.49634	0.48958
1010.56777	0.49031
1008.63921	0.49104
1006.71064	0.49192
1004.78208	0.49331
1002.85352	0.49528
1000.92495	0.49771
998.99639	0.50080
997.06782	0.50469
995.13926	0.50904
993.21069	0.51314
991.28213	0.51631
989.35356	0.51835
987.42500	0.51956
985.49644	0.52036
983.56787	0.52092
981.63931	0.52139
979.71074	0.52243
977.78218	0.52426
975.85361	0.52661
973.92505	0.52947
971.99648	0.53285
970.06792	0.53654
968.13936	0.54047
966.21079	0.54455
964.28223	0.54876
962.35366	0.55326
960.42510	0.55845
958.49653	0.56433
956.56797	0.57038
954.63940	0.57629
952.71084	0.58211
950.78228	0.58808
948.85371	0.59438
946.92515	0.60103
944.99658	0.60775
943.06802	0.61408
941.13945	0.61991
939.21089	0.62542
937.28232	0.63072
935.35376	0.63596
933.42520	0.64143
931.49663	0.64719
929.56807	0.65335
927.63950	0.65979
925.71094	0.66613
923.78237	0.67265
921.85381	0.67959
919.92524	0.68632
917.99668	0.69267
916.06812	0.69914
914.13955	0.70628
912.21099	0.71428
910.28242	0.72252
908.35386	0.73062
906.42529	0.73925
904.49673	0.74877
902.56816	0.75808
900.63960	0.76673
898.71104	0.77594
896.78247	0.78565
894.85391	0.79511
892.92534	0.80543
890.99678	0.81684
889.06821	0.82777
887.13965	0.83834
885.21108	0.84973
883.28252	0.86112
881.35396	0.87177
879.42539	0.88259
877.49683	0.89403
875.56826	0.90604
873.63970	0.91792
871.71113	0.92900
869.78257	0.93987
867.85400	0.95112
865.92544	0.96272
863.99687	0.97496
862.06831	0.98769
860.13975	0.99933
858.21118	1.00981
856.28262	1.02105
854.35405	1.03349
852.42549	1.04543
850.49692	1.05599
848.56836	1.06678
846.63979	1.07877
844.71123	1.09051
842.78267	1.10163
840.85410	1.11326
838.92554	1.12396
836.99697	1.13191
835.06841	1.13901
833.13984	1.14937
831.21128	1.16432
829.28271	1.17765
827.35415	1.18404
825.42559	1.18946
823.49702	1.20179
821.56846	1.21917
819.63989	1.23373
817.71133	1.24389
815.78276	1.25525
813.85420	1.26607
811.92563	1.27312
809.99707	1.27979
808.06851	1.28907
806.13994	1.30059
804.21138	1.30340
802.28281	1.29975
800.35425	1.30726
798.42568	1.32337
796.49712	1.33498
794.56855	1.34895
792.63999	1.37023
790.71143	1.38264
788.78286	1.38550
786.85430	1.38219
784.92573	1.38010
782.99717	1.38820
781.06860	1.38377
779.14004	1.35735
777.21147	1.34395
775.28291	1.35986
773.35435	1.39108
771.42578	1.43927
769.49722	1.50332
767.56865	1.52601
765.64009	1.44180
763.71152	1.35920
761.78296	1.31750
759.85439	1.25478
757.92583	1.18318
755.99727	1.15462
754.06870	1.21196
752.14014	1.30928
750.21157	1.25818
748.28301	1.11098
746.35444	1.02930
744.42588	1.07977
742.49731	1.27722
740.56875	1.32033
738.64019	1.05882
736.71162	0.84559
734.78306	0.71281
732.85449	0.66795
730.92593	0.66960
728.99736	0.67246
727.06880	0.75593
725.14023	0.78573
723.21167	0.59433
721.28311	0.43446
719.35454	0.24866
717.42598	0.11437
715.49741	0.09078
713.56885	0.06176
711.64028	-0.05189
709.71172	-0.07373
707.78315	0.11115
705.85459	0.28669
703.92603	0.36912
701.99746	0.30936
700.06890	0.27696
698.14033	0.31452
696.21177	0.39188
694.28320	0.56527
692.35464	0.75301
690.42607	0.54155
688.49751	0.42783
686.56895	0.49431
684.64038	0.53849
682.71182	0.41835
680.78325	0.32831
678.85469	0.30630
676.92612	0.31371
674.99756	0.33080
673.06899	0.36126
671.14043	0.37762
669.21187	0.35514
667.28330	0.27576
665.35474	0.23330
663.42617	0.26259
661.49761	0.29922
659.56904	0.29477
657.64048	0.24327
655.71191	0.19699
653.78335	0.22447
651.85479	0.34183
649.92622	0.52699
647.99766	0.81429
646.06909	0.82863
644.14053	0.47562
642.21196	0.30946
640.28340	0.24923
638.35483	0.20670
636.42627	0.23475
634.49771	0.45623
632.56914	0.59330
630.64058	0.42777
628.71201	0.32963
626.78345	0.28439
624.85488	0.24255
622.92632	0.19637
620.99775	0.17900
619.06919	0.17419
617.14062	0.14586
615.21206	0.13154
613.28350	0.20456
611.35493	0.35593
609.42637	0.41458
607.49780	0.33573
605.56924	0.26682
603.64067	0.24403
601.71211	0.25759
599.78354	0.27083
597.85498	0.29046
595.92642	0.25682
593.99785	0.18269
592.06929	0.22018
590.14072	0.34036
588.21216	0.39075
586.28359	0.34919
584.35503	0.29241
582.42646	0.25569
580.49790	0.26198
578.56934	0.29640
576.64077	0.32166
574.71221	0.32214
572.78364	0.31123
570.85508	0.28368
568.92651	0.23106
566.99795	0.22834
565.06938	0.28991
563.14082	0.29810
561.21226	0.27802
559.28369	0.27214
557.35513	0.26831
555.42656	0.26825
553.49800	0.25257
551.56943	0.22104
549.64087	0.21624
547.71230	0.27189
545.78374	0.35101
543.85518	0.34943
541.92661	0.32713
539.99805	0.36035
538.06948	0.33383
536.14092	0.24641
534.21235	0.23667
532.28379	0.29239
530.35522	0.31968
528.42666	0.30161
526.49810	0.29009
524.56953	0.25703
522.64097	0.21434
520.71240	0.22666
518.78384	0.29918
516.85527	0.34066
514.92671	0.28202
512.99814	0.23289
511.06958	0.22285
509.14102	0.24039
507.21245	0.29424
505.28389	0.37017
503.35532	0.36132
501.42676	0.28001
499.49819	0.24084
