3997.91411	0.06408
3995.98555	0.06449
3994.05698	0.06511
3992.12842	0.06543
3990.19985	0.06530
3988.27129	0.06522
3986.34272	0.06544
3984.41416	0.06583
3982.48560	0.06616
3980.55703	0.06648
3978.62847	0.06681
3976.69990	0.06716
3974.77134	0.06761
3972.84277	0.06783
3970.91421	0.06766
3968.98564	0.06763
3967.05708	0.06792
3965.12852	0.06807
3963.19995	0.06806
3961.27139	0.06805
3959.34282	0.06786
3957.41426	0.06757
3955.48569	0.06753
3953.55713	0.06781
3951.62856	0.06836
3949.70000	0.06912
3947.77144	0.06967
3945.84287	0.06945
3943.91431	0.06889
3941.98574	0.06848
3940.05718	0.06811
3938.12861	0.06806
3936.20005	0.06833
3934.27148	0.06848
3932.34292	0.06856
3930.41436	0.06869
3928.48579	0.06864
3926.55723	0.06842
3924.62866	0.06848
3922.70010	0.06889
3920.77153	0.06906
3918.84297	0.06889
3916.91440	0.06888
3914.98584	0.06892
3913.05728	0.06841
3911.12871	0.06781
3909.20015	0.06781
3907.27158	0.06805
3905.34302	0.06803
3903.41445	0.06802
3901.48589	0.06801
3899.55732	0.06796
3897.62876	0.06816
3895.70020	0.06831
3893.77163	0.06830
3891.84307	0.06855
3889.91450	0.06881
3887.98594	0.06833
3886.05737	0.06788
3884.12881	0.06830
3882.20024	0.06894
3880.27168	0.06940
3878.34312	0.06956
3876.41455	0.06924
3874.48599	0.06926
3872.55742	0.07005
3870.62886	0.07102
3868.70029	0.07163
3866.77173	0.07147
3864.84316	0.07107
3862.91460	0.07107
3860.98604	0.07128
3859.05747	0.07139
3857.12891	0.07160
3855.20034	0.07229
3853.27178	0.07357
3851.34321	0.07473
3849.41465	0.07489
3847.48608	0.07466
3845.55752	0.07459
3843.62896	0.07517
3841.70039	0.07635
3839.77183	0.07760
3837.84326	0.07869
3835.91470	0.07911
3833.98613	0.07894
3832.05757	0.07896
3830.12900	0.07958
3828.20044	0.08064
3826.27187	0.08163
3824.34331	0.08224
3822.41475	0.08297
3820.48618	0.08470
3818.55762	0.08627
3816.62905	0.08677
3814.70049	0.08728
3812.77192	0.08757
3810.84336	0.08770
3808.91479	0.08842
3806.98623	0.09018
3805.05767	0.09212
3803.12910	0.09305
3801.20054	0.09400
3799.27197	0.09545
3797.34341	0.09641
3795.41484	0.09721
3793.48628	0.09818
3791.55771	0.09929
3789.62915	0.10057
3787.70059	0.10193
3785.77202	0.10348
3783.84346	0.10526
3781.91489	0.10683
3779.98633	0.10842
3778.05776	0.11045
3776.12920	0.11201
3774.20063	0.11293
3772.27207	0.11406
3770.34351	0.11601
3768.41494	0.11845
3766.48638	0.12043
3764.55781	0.12215
3762.62925	0.12373
3760.70068	0.12547
3758.77212	0.12805
3756.84355	0.13087
3754.91499	0.13285
3752.98643	0.13441
3751.05786	0.13702
3749.12930	0.14120
3747.20073	0.14438
3745.27217	0.14675
3743.34360	0.15068
3741.41504	0.15485
3739.48647	0.15772
3737.55791	0.16051
3735.62935	0.16448
3733.70078	0.17024
3731.77222	0.17640
3729.84365	0.18163
3727.91509	0.18605
3725.98652	0.19101
3724.05796	0.19698
3722.12939	0.20347
3720.20083	0.21063
3718.27227	0.21813
3716.34370	0.22566
3714.41514	0.23343
3712.48657	0.24287
3710.55801	0.25597
3708.62944	0.27047
3706.70088	0.28289
3704.77231	0.29423
3702.84375	0.30691
3700.91519	0.32357
3698.98662	0.34250
3697.05806	0.36050
3695.12949	0.37907
3693.20093	0.39848
3691.27236	0.41933
3689.34380	0.44672
3687.41523	0.48183
3685.48667	0.51358
3683.55811	0.54068
3681.62954	0.56934
3679.70098	0.60132
3677.77241	0.63469
3675.84385	0.67373
3673.91528	0.72598
3671.98672	0.77002
3670.05815	0.80955
3668.12959	0.86330
3666.20103	0.91340
3664.27246	0.95523
3662.34390	0.99915
3660.41533	1.04625
3658.48677	1.09282
3656.55820	1.14225
3654.62964	1.19746
3652.70107	1.24474
3650.77251	1.28583
3648.84395	1.34023
3646.91538	1.40665
3644.98682	1.45837
3643.05825	1.49933
3641.12969	1.54042
3639.20112	1.58482
3637.27256	1.62943
3635.34399	1.67347
3633.41543	1.71786
3631.48687	1.75874
3629.55830	1.79914
3627.62974	1.85144
3625.70117	1.90189
3623.77261	1.93770
3621.84404	1.97183
3619.91548	2.01088
3617.98691	2.05834
3616.05835	2.10358
3614.12979	2.13994
3612.20122	2.17775
3610.27266	2.21752
3608.34409	2.25834
3606.41553	2.30093
3604.48696	2.34017
3602.55840	2.37549
3600.62983	2.41387
3598.70127	2.45569
3596.77271	2.49663
3594.84414	2.53819
3592.91558	2.58124
3590.98701	2.62223
3589.05845	2.66001
3587.12988	2.70247
3585.20132	2.74861
3583.27275	2.79010
3581.34419	2.82909
3579.41562	2.86936
3577.48706	2.91154
3575.55850	2.95457
3573.62993	2.99883
3571.70137	3.04235
3569.77280	3.08365
3567.84424	3.12652
3565.91567	3.17820
3563.98711	3.22938
3562.05854	3.27124
3560.12998	3.31216
3558.20142	3.35805
3556.27285	3.40611
3554.34429	3.45098
3552.41572	3.49591
3550.48716	3.54207
3548.55859	3.58675
3546.63003	3.63129
3544.70146	3.67904
3542.77290	3.72897
3540.84434	3.77806
3538.91577	3.82616
3536.98721	3.87385
3535.05864	3.92333
3533.13008	3.97231
3531.20151	4.01982
3529.27295	4.06862
3527.34438	4.12027
3525.41582	4.17066
3523.48726	4.21618
3521.55869	4.26156
3519.63013	4.30979
3517.70156	4.35795
3515.77300	4.40261
3513.84443	4.44816
3511.91587	4.49769
3509.98730	4.54877
3508.05874	4.60215
3506.13018	4.65458
3504.20161	4.70218
3502.27305	4.75146
3500.34448	4.80352
3498.41592	4.84977
3496.48735	4.89373
3494.55879	4.94357
3492.63022	4.99638
3490.70166	5.04628
3488.77310	5.09377
3486.84453	5.13985
3484.91597	5.18442
3482.98740	5.22978
3481.05884	5.27993
3479.13027	5.33065
3477.20171	5.37509
3475.27314	5.41652
3473.34458	5.45872
3471.41602	5.50422
3469.48745	5.55647
3467.55889	5.61212
3465.63032	5.66211
3463.70176	5.70905
3461.77319	5.76011
3459.84463	5.81846
3457.91606	5.88471
3455.98750	5.94660
3454.05894	5.99730
3452.13037	6.04761
3450.20181	6.09756
3448.27324	6.14246
3446.34468	6.19173
3444.41611	6.24708
3442.48755	6.29817
3440.55898	6.33525
3438.63042	6.36831
3436.70186	6.40978
3434.77329	6.46568
3432.84473	6.52621
3430.91616	6.55996
3428.98760	6.58827
3427.05903	6.65801
3425.13047	6.75347
3423.20190	6.80615
3421.27334	6.81952
3419.34478	6.86567
3417.41621	6.95776
3415.48765	7.05036
3413.55908	7.10079
3411.63052	7.11702
3409.70195	7.13724
3407.77339	7.16987
3405.84482	7.19148
3403.91626	7.21810
3401.98770	7.26772
3400.05913	7.32757
3398.13057	7.38477
3396.20200	7.43815
3394.27344	7.49062
3392.34487	7.53150
3390.41631	7.57818
3388.48774	7.60014
3386.55918	7.58041
3384.63062	7.57226
3382.70205	7.59595
3380.77349	7.63689
3378.84492	7.69187
3376.91636	7.75630
3374.98779	7.80508
3373.05923	7.84571
3371.13066	7.86240
3369.20210	7.84339
3367.27354	7.82646
3365.34497	7.87129
3363.41641	7.96366
3361.48784	7.99712
3359.55928	7.94778
3357.63071	7.89564
3355.70215	7.89231
3353.77358	7.91566
3351.84502	7.98354
3349.91646	8.06573
3347.98789	8.09224
3346.05933	8.07386
3344.13076	8.03235
3342.20220	8.01136
3340.27363	8.04136
3338.34507	8.08655
3336.41650	8.06660
3334.48794	8.01608
3332.55937	8.01636
3330.63081	8.05365
3328.70225	8.07344
3326.77368	8.09916
3324.84512	8.18514
3322.91655	8.28327
3320.98799	8.31379
3319.05942	8.26021
3317.13086	8.20747
3315.20229	8.23178
3313.27373	8.32903
3311.34517	8.39906
3309.41660	8.37996
3307.48804	8.33350
3305.55947	8.30739
3303.63091	8.29941
3301.70234	8.26925
3299.77378	8.23220
3297.84521	8.19419
3295.91665	8.17552
3293.98809	8.21582
3292.05952	8.28777
3290.13096	8.37064
3288.20239	8.44511
3286.27383	8.43848
3284.34526	8.39112
3282.41670	8.39183
3280.48813	8.34526
3278.55957	8.26334
3276.63101	8.24551
3274.70244	8.24034
3272.77388	8.18521
3270.84531	8.12285
3268.91675	8.12972
3266.98818	8.20475
3265.05962	8.27062
3263.13105	8.27064
3261.20249	8.28407
3259.27393	8.34670
3257.34536	8.37013
3255.41680	8.35107
3253.48823	8.35020
3251.55967	8.33953
3249.63110	8.28980
3247.70254	8.24984
3245.77397	8.26606
3243.84541	8.34042
3241.91685	8.39193
3239.98828	8.37973
3238.05972	8.32332
3236.13115	8.21470
3234.20259	8.12595
3232.27402	8.09158
3230.34546	8.05246
3228.41689	8.05398
3226.48833	8.10961
3224.55977	8.11595
3222.63120	8.13361
3220.70264	8.21811
3218.77407	8.29581
3216.84551	8.31900
3214.91694	8.24847
3212.98838	8.10728
3211.05981	7.96965
3209.13125	7.91807
3207.20269	7.95051
3205.27412	7.93283
3203.34556	7.84915
3201.41699	7.80990
3199.48843	7.81799
3197.55986	7.83143
3195.63130	7.82684
3193.70273	7.78335
3191.77417	7.72389
3189.84561	7.66438
3187.91704	7.60689
3185.98848	7.56119
3184.05991	7.50950
3182.13135	7.43547
3180.20278	7.36118
3178.27422	7.31072
3176.34565	7.27269
3174.41709	7.22760
3172.48853	7.17537
3170.55996	7.11080
3168.63140	7.04756
3166.70283	7.00607
3164.77427	6.96940
3162.84570	6.91729
3160.91714	6.84402
3158.98857	6.75870
3157.06001	6.67592
3155.13145	6.60272
3153.20288	6.54455
3151.27432	6.49038
3149.34575	6.42532
3147.41719	6.35310
3145.48862	6.27516
3143.56006	6.19742
3141.63149	6.12927
3139.70293	6.06348
3137.77437	5.99714
3135.84580	5.93409
3133.91724	5.86725
3131.98867	5.79200
3130.06011	5.72139
3128.13154	5.65554
3126.20298	5.57854
3124.27441	5.49693
3122.34585	5.42583
3120.41729	5.35782
3118.48872	5.28349
3116.56016	5.21163
3114.63159	5.14145
3112.70303	5.07088
3110.77446	5.00541
3108.84590	4.93805
3106.91733	4.86765
3104.98877	4.79899
3103.06021	4.72871
3101.13164	4.65809
3099.20308	4.59265
3097.27451	4.52705
3095.34595	4.45766
3093.41738	4.39080
3091.48882	4.32725
3089.56025	4.26366
3087.63169	4.19936
3085.70312	4.13559
3083.77456	4.07287
3081.84600	4.01222
3079.91743	3.95406
3077.98887	3.89520
3076.06030	3.83432
3074.13174	3.77370
3072.20317	3.71467
3070.27461	3.65644
3068.34604	3.59927
3066.41748	3.54362
3064.48892	3.48763
3062.56035	3.43086
3060.63179	3.37578
3058.70322	3.32316
3056.77466	3.27116
3054.84609	3.21754
3052.91753	3.16167
3050.98896	3.10676
3049.06040	3.05479
3047.13184	3.00392
3045.20327	2.95417
3043.27471	2.90637
3041.34614	2.85902
3039.41758	2.81101
3037.48901	2.76297
3035.56045	2.71580
3033.63188	2.66968
3031.70332	2.62403
3029.77476	2.57865
3027.84619	2.53449
3025.91763	2.49146
3023.98906	2.44823
3022.06050	2.40484
3020.13193	2.36245
3018.20337	2.32166
3016.27480	2.28172
3014.34624	2.24162
3012.41768	2.20204
3010.48911	2.16343
3008.56055	2.12542
3006.63198	2.08872
3004.70342	2.05351
3002.77485	2.01836
3000.84629	1.98285
2998.91772	1.94801
2996.98916	1.91435
2995.06060	1.88159
2993.13203	1.84969
2991.20347	1.81861
2989.27490	1.78790
2987.34634	1.75768
2985.41777	1.72824
2983.48921	1.69921
2981.56064	1.67083
2979.63208	1.64347
2977.70352	1.61647
2975.77495	1.58953
2973.84639	1.56319
2971.91782	1.53754
2969.98926	1.51228
2968.06069	1.48748
2966.13213	1.46292
2964.20356	1.43848
2962.27500	1.41446
2960.34644	1.39061
2958.41787	1.36641
2956.48931	1.34185
2954.56074	1.31736
2952.63218	1.29326
2950.70361	1.26951
2948.77505	1.24603
2946.84648	1.22292
2944.91792	1.20052
2942.98936	1.17902
2941.06079	1.15820
2939.13223	1.13772
2937.20366	1.11746
2935.27510	1.09741
2933.34653	1.07764
2931.41797	1.05811
2929.48940	1.03861
2927.56084	1.01937
2925.63228	1.00049
2923.70371	0.98210
2921.77515	0.96410
2919.84658	0.94599
2917.91802	0.92811
2915.98945	0.91121
2914.06089	0.89511
2912.13232	0.87933
2910.20376	0.86354
2908.27520	0.84768
2906.34663	0.83228
2904.41807	0.81755
2902.48950	0.80303
2900.56094	0.78895
2898.63237	0.77577
2896.70381	0.76294
2894.77524	0.75004
2892.84668	0.73741
2890.91812	0.72523
2888.98955	0.71353
2887.06099	0.70217
2885.13242	0.69108
2883.20386	0.68058
2881.27529	0.67068
2879.34673	0.66092
2877.41816	0.65116
2875.48960	0.64134
2873.56104	0.63120
2871.63247	0.62080
2869.70391	0.61004
2867.77534	0.59859
2865.84678	0.58681
2863.91821	0.57529
2861.98965	0.56419
2860.06108	0.55353
2858.13252	0.54339
2856.20396	0.53374
2854.27539	0.52445
2852.34683	0.51526
2850.41826	0.50623
2848.48970	0.49759
2846.56113	0.48942
2844.63257	0.48187
2842.70400	0.47497
2840.77544	0.46849
2838.84687	0.46222
2836.91831	0.45621
2834.98975	0.45034
2833.06118	0.44429
2831.13262	0.43810
2829.20405	0.43211
2827.27549	0.42616
2825.34692	0.42004
2823.41836	0.41405
2821.48979	0.40835
2819.56123	0.40249
2817.63267	0.39632
2815.70410	0.39025
2813.77554	0.38454
2811.84697	0.37910
2809.91841	0.37387
2807.98984	0.36870
2806.06128	0.36353
2804.13271	0.35838
2802.20415	0.35318
2800.27559	0.34792
2798.34702	0.34286
2796.41846	0.33816
2794.48989	0.33353
2792.56133	0.32877
2790.63276	0.32410
2788.70420	0.31972
2786.77563	0.31545
2784.84707	0.31109
2782.91851	0.30677
2780.98994	0.30260
2779.06138	0.29858
2777.13281	0.29462
2775.20425	0.29077
2773.27568	0.28706
2771.34712	0.28339
2769.41855	0.27965
2767.48999	0.27591
2765.56143	0.27234
2763.63286	0.26887
2761.70430	0.26553
2759.77573	0.26230
2757.84717	0.25902
2755.91860	0.25580
2753.99004	0.25280
2752.06147	0.24988
2750.13291	0.24687
2748.20435	0.24380
2746.27578	0.24088
2744.34722	0.23815
2742.41865	0.23548
2740.49009	0.23276
2738.56152	0.23007
2736.63296	0.22754
2734.70439	0.22509
2732.77583	0.22259
2730.84727	0.22007
2728.91870	0.21768
2726.99014	0.21546
2725.06157	0.21332
2723.13301	0.21124
2721.20444	0.20917
2719.27588	0.20704
2717.34731	0.20493
2715.41875	0.20292
2713.49019	0.20100
2711.56162	0.19918
2709.63306	0.19746
2707.70449	0.19579
2705.77593	0.19414
2703.84736	0.19250
2701.91880	0.19092
2699.99023	0.18940
2698.06167	0.18792
2696.13311	0.18646
2694.20454	0.18498
2692.27598	0.18359
2690.34741	0.18238
2688.41885	0.18128
2686.49028	0.18009
2684.56172	0.17878
2682.63315	0.17744
2680.70459	0.17612
2678.77603	0.17494
2676.84746	0.17395
2674.91890	0.17297
2672.99033	0.17188
2671.06177	0.17078
2669.13320	0.16986
2667.20464	0.16906
2665.27607	0.16817
2663.34751	0.16723
2661.41895	0.16638
2659.49038	0.16554
2657.56182	0.16475
2655.63325	0.16401
2653.70469	0.16325
2651.77612	0.16246
2649.84756	0.16181
2647.91899	0.16136
2645.99043	0.16084
2644.06187	0.16014
2642.13330	0.15953
2640.20474	0.15911
2638.27617	0.15872
2636.34761	0.15829
2634.41904	0.15780
2632.49048	0.15720
2630.56191	0.15661
2628.63335	0.15614
2626.70479	0.15581
2624.77622	0.15562
2622.84766	0.15536
2620.91909	0.15498
2618.99053	0.15472
2617.06196	0.15459
2615.13340	0.15440
2613.20483	0.15426
2611.27627	0.15426
2609.34771	0.15420
2607.41914	0.15404
2605.49058	0.15401
2603.56201	0.15405
2601.63345	0.15389
2599.70488	0.15361
2597.77632	0.15360
2595.84775	0.15390
2593.91919	0.15418
2591.99062	0.15419
2590.06206	0.15415
2588.13350	0.15426
2586.20493	0.15443
2584.27637	0.15458
2582.34780	0.15471
2580.41924	0.15496
2578.49067	0.15538
2576.56211	0.15575
2574.63354	0.15602
2572.70498	0.15631
2570.77642	0.15664
2568.84785	0.15692
2566.91929	0.15718
2564.99072	0.15760
2563.06216	0.15816
2561.13359	0.15867
2559.20503	0.15914
2557.27646	0.15964
2555.34790	0.16011
2553.41934	0.16052
2551.49077	0.16098
2549.56221	0.16158
2547.63364	0.16227
2545.70508	0.16287
2543.77651	0.16341
2541.84795	0.16401
2539.91938	0.16467
2537.99082	0.16530
2536.06226	0.16587
2534.13369	0.16638
2532.20513	0.16694
2530.27656	0.16772
2528.34800	0.16862
2526.41943	0.16939
2524.49087	0.17002
2522.56230	0.17065
2520.63374	0.17140
2518.70518	0.17219
2516.77661	0.17293
2514.84805	0.17371
2512.91948	0.17461
2510.99092	0.17551
2509.06235	0.17635
2507.13379	0.17717
2505.20522	0.17794
2503.27666	0.17865
2501.34810	0.17939
2499.41953	0.18026
2497.49097	0.18118
2495.56240	0.18195
2493.63384	0.18266
2491.70527	0.18352
2489.77671	0.18446
2487.84814	0.18534
2485.91958	0.18609
2483.99102	0.18684
2482.06245	0.18779
2480.13389	0.18882
2478.20532	0.18972
2476.27676	0.19063
2474.34819	0.19161
2472.41963	0.19254
2470.49106	0.19334
2468.56250	0.19411
2466.63394	0.19497
2464.70537	0.19598
2462.77681	0.19694
2460.84824	0.19775
2458.91968	0.19866
2456.99111	0.19975
2455.06255	0.20084
2453.13398	0.20188
2451.20542	0.20290
2449.27686	0.20390
2447.34829	0.20491
2445.41973	0.20589
2443.49116	0.20688
2441.56260	0.20789
2439.63403	0.20890
2437.70547	0.20996
2435.77690	0.21104
2433.84834	0.21204
2431.91978	0.21301
2429.99121	0.21404
2428.06265	0.21512
2426.13408	0.21623
2424.20552	0.21738
2422.27695	0.21853
2420.34839	0.21963
2418.41982	0.22069
2416.49126	0.22178
2414.56270	0.22295
2412.63413	0.22410
2410.70557	0.22518
2408.77700	0.22630
2406.84844	0.22747
2404.91987	0.22872
2402.99131	0.23002
2401.06274	0.23123
2399.13418	0.23237
2397.20562	0.23359
2395.27705	0.23494
2393.34849	0.23626
2391.41992	0.23740
2389.49136	0.23849
2387.56279	0.23978
2385.63423	0.24125
2383.70566	0.24283
2381.77710	0.24449
2379.84854	0.24621
2377.91997	0.24796
2375.99141	0.24981
2374.06284	0.25184
2372.13428	0.25386
2370.20571	0.25593
2368.27715	0.25829
2366.34858	0.26064
2364.42002	0.26286
2362.49146	0.26495
2360.56289	0.26666
2358.63433	0.26832
2356.70576	0.26976
2354.77720	0.27048
2352.84863	0.27117
2350.92007	0.27201
2348.99150	0.27258
2347.06294	0.27325
2345.13437	0.27498
2343.20581	0.27768
2341.27725	0.27976
2339.34868	0.28154
2337.42012	0.28356
2335.49155	0.28509
2333.56299	0.28598
2331.63442	0.28703
2329.70586	0.28868
2327.77729	0.29051
2325.84873	0.29208
2323.92017	0.29350
2321.99160	0.29511
2320.06304	0.29687
2318.13447	0.29845
2316.20591	0.29982
2314.27734	0.30132
2312.34878	0.30306
2310.42021	0.30471
2308.49165	0.30619
2306.56309	0.30774
2304.63452	0.30935
2302.70596	0.31092
2300.77739	0.31252
2298.84883	0.31424
2296.92026	0.31603
2294.99170	0.31783
2293.06313	0.31965
2291.13457	0.32149
2289.20601	0.32327
2287.27744	0.32504
2285.34888	0.32693
2283.42031	0.32893
2281.49175	0.33094
2279.56318	0.33295
2277.63462	0.33504
2275.70605	0.33716
2273.77749	0.33914
2271.84893	0.34109
2269.92036	0.34324
2267.99180	0.34552
2266.06323	0.34777
2264.13467	0.34999
2262.20610	0.35216
2260.27754	0.35429
2258.34897	0.35647
2256.42041	0.35869
2254.49185	0.36087
2252.56328	0.36296
2250.63472	0.36502
2248.70615	0.36717
2246.77759	0.36938
2244.84902	0.37151
2242.92046	0.37365
2240.99189	0.37591
2239.06333	0.37820
2237.13477	0.38046
2235.20620	0.38276
2233.27764	0.38504
2231.34907	0.38722
2229.42051	0.38942
2227.49194	0.39173
2225.56338	0.39407
2223.63481	0.39633
2221.70625	0.39856
2219.77769	0.40082
2217.84912	0.40305
2215.92056	0.40526
2213.99199	0.40744
2212.06343	0.40955
2210.13486	0.41157
2208.20630	0.41357
2206.27773	0.41558
2204.34917	0.41766
2202.42061	0.41992
2200.49204	0.42214
2198.56348	0.42419
2196.63491	0.42618
2194.70635	0.42817
2192.77778	0.43014
2190.84922	0.43204
2188.92065	0.43384
2186.99209	0.43559
2185.06353	0.43736
2183.13496	0.43922
2181.20640	0.44110
2179.27783	0.44284
2177.34927	0.44440
2175.42070	0.44583
2173.49214	0.44724
2171.56357	0.44872
2169.63501	0.45024
2167.70645	0.45168
2165.77788	0.45304
2163.84932	0.45432
2161.92075	0.45547
2159.99219	0.45651
2158.06362	0.45744
2156.13506	0.45838
2154.20649	0.45940
2152.27793	0.46030
2150.34937	0.46102
2148.42080	0.46173
2146.49224	0.46246
2144.56367	0.46302
2142.63511	0.46340
2140.70654	0.46373
2138.77798	0.46399
2136.84941	0.46409
2134.92085	0.46413
2132.99229	0.46419
2131.06372	0.46420
2129.13516	0.46414
2127.20659	0.46399
2125.27803	0.46364
2123.34946	0.46309
2121.42090	0.46255
2119.49233	0.46205
2117.56377	0.46147
2115.63521	0.46076
2113.70664	0.45994
2111.77808	0.45901
2109.84951	0.45803
2107.92095	0.45708
2105.99238	0.45604
2104.06382	0.45480
2102.13525	0.45342
2100.20669	0.45204
2098.27812	0.45072
2096.34956	0.44932
2094.42100	0.44766
2092.49243	0.44587
2090.56387	0.44418
2088.63530	0.44259
2086.70674	0.44093
2084.77817	0.43907
2082.84961	0.43710
2080.92104	0.43508
2078.99248	0.43303
2077.06392	0.43094
2075.13535	0.42886
2073.20679	0.42684
2071.27822	0.42469
2069.34966	0.42234
2067.42109	0.41990
2065.49253	0.41744
2063.56396	0.41503
2061.63540	0.41270
2059.70684	0.41024
2057.77827	0.40765
2055.84971	0.40513
2053.92114	0.40264
2051.99258	0.40003
2050.06401	0.39734
2048.13545	0.39470
2046.20688	0.39204
2044.27832	0.38925
2042.34976	0.38636
2040.42119	0.38355
2038.49263	0.38093
2036.56406	0.37830
2034.63550	0.37553
2032.70693	0.37271
2030.77837	0.36982
2028.84980	0.36688
2026.92124	0.36405
2024.99268	0.36125
2023.06411	0.35842
2021.13555	0.35568
2019.20698	0.35308
2017.27842	0.35044
2015.34985	0.34766
2013.42129	0.34482
2011.49272	0.34192
2009.56416	0.33905
2007.63560	0.33626
2005.70703	0.33353
2003.77847	0.33083
2001.84990	0.32820
1999.92134	0.32556
1997.99277	0.32285
1996.06421	0.32029
1994.13564	0.31792
1992.20708	0.31542
1990.27852	0.31267
1988.34995	0.31001
1986.42139	0.30758
1984.49282	0.30530
1982.56426	0.30306
1980.63569	0.30066
1978.70713	0.29818
1976.77856	0.29582
1974.85000	0.29358
1972.92144	0.29139
1970.99287	0.28926
1969.06431	0.28721
1967.13574	0.28510
1965.20718	0.28292
1963.27861	0.28086
1961.35005	0.27893
1959.42148	0.27705
1957.49292	0.27523
1955.56436	0.27342
1953.63579	0.27160
1951.70723	0.26976
1949.77866	0.26802
1947.85010	0.26644
1945.92153	0.26502
1943.99297	0.26365
1942.06440	0.26219
1940.13584	0.26058
1938.20728	0.25897
1936.27871	0.25747
1934.35015	0.25606
1932.42158	0.25480
1930.49302	0.25364
1928.56445	0.25252
1926.63589	0.25140
1924.70732	0.25042
1922.77876	0.24953
1920.85020	0.24857
1918.92163	0.24756
1916.99307	0.24659
1915.06450	0.24566
1913.13594	0.24476
1911.20737	0.24401
1909.27881	0.24345
1907.35024	0.24294
1905.42168	0.24233
1903.49312	0.24167
1901.56455	0.24108
1899.63599	0.24055
1897.70742	0.24011
1895.77886	0.23974
1893.85029	0.23939
1891.92173	0.23898
1889.99316	0.23864
1888.06460	0.23836
1886.13604	0.23812
1884.20747	0.23793
1882.27891	0.23771
1880.35034	0.23750
1878.42178	0.23734
1876.49321	0.23726
1874.56465	0.23723
1872.63608	0.23731
1870.70752	0.23749
1868.77896	0.23784
1866.85039	0.23811
1864.92183	0.23820
1862.99326	0.23831
1861.06470	0.23846
1859.13613	0.23881
1857.20757	0.23924
1855.27900	0.23970
1853.35044	0.24016
1851.42187	0.24062
1849.49331	0.24111
1847.56475	0.24175
1845.63618	0.24255
1843.70762	0.24352
1841.77905	0.24443
1839.85049	0.24500
1837.92192	0.24571
1835.99336	0.24661
1834.06479	0.24761
1832.13623	0.24863
1830.20767	0.24996
1828.27910	0.25142
1826.35054	0.25246
1824.42197	0.25363
1822.49341	0.25500
1820.56484	0.25639
1818.63628	0.25781
1816.70771	0.25942
1814.77915	0.26107
1812.85059	0.26281
1810.92202	0.26479
1808.99346	0.26687
1807.06489	0.26890
1805.13633	0.27090
1803.20776	0.27311
1801.27920	0.27555
1799.35063	0.27829
1797.42207	0.28088
1795.49351	0.28329
1793.56494	0.28593
1791.63638	0.28938
1789.70781	0.29298
1787.77925	0.29589
1785.85068	0.29915
1783.92212	0.30284
1781.99355	0.30676
1780.06499	0.31095
1778.13643	0.31524
1776.20786	0.31923
1774.27930	0.32340
1772.35073	0.32904
1770.42217	0.33543
1768.49360	0.34111
1766.56504	0.34653
1764.63647	0.35195
1762.70791	0.35776
1760.77935	0.36511
1758.85078	0.37224
1756.92222	0.37948
1754.99365	0.38736
1753.06509	0.39445
1751.13652	0.40263
1749.20796	0.41295
1747.27939	0.42353
1745.35083	0.43306
1743.42227	0.44284
1741.49370	0.45327
1739.56514	0.46549
1737.63657	0.47804
1735.70801	0.48912
1733.77944	0.50525
1731.85088	0.52475
1729.92231	0.54068
1727.99375	0.55680
1726.06519	0.57402
1724.13662	0.59261
1722.20806	0.61257
1720.27949	0.63114
1718.35093	0.65276
1716.42236	0.68431
1714.49380	0.71509
1712.56523	0.74070
1710.63667	0.76537
1708.70811	0.79154
1706.77954	0.82094
1704.85098	0.85578
1702.92241	0.88734
1700.99385	0.91902
1699.06528	0.96556
1697.13672	1.00863
1695.20815	1.05337
1693.27959	1.09805
1691.35103	1.13460
1689.42246	1.17625
1687.49390	1.21986
1685.56533	1.26181
1683.63677	1.32539
1681.70820	1.39241
1679.77964	1.43656
1677.85107	1.47847
1675.92251	1.52667
1673.99395	1.58598
1672.06538	1.63889
1670.13682	1.69030
1668.20825	1.75708
1666.27969	1.81328
1664.35112	1.86205
1662.42256	1.92342
1660.49399	1.99349
1658.56543	2.04896
1656.63687	2.09307
1654.70830	2.13179
1652.77974	2.18854
1650.85117	2.24548
1648.92261	2.26772
1646.99404	2.29105
1645.06548	2.31575
1643.13691	2.33366
1641.20835	2.34339
1639.27979	2.35180
1637.35122	2.35628
1635.42266	2.35245
1633.49409	2.34262
1631.56553	2.32897
1629.63696	2.31184
1627.70840	2.28277
1625.77983	2.24754
1623.85127	2.20335
1621.92271	2.15142
1619.99414	2.10528
1618.06558	2.05936
1616.13701	1.99470
1614.20845	1.92877
1612.27988	1.87775
1610.35132	1.82417
1608.42275	1.76618
1606.49419	1.70974
1604.56562	1.65803
1602.63706	1.60808
1600.70850	1.55960
1598.77993	1.51499
1596.85137	1.47281
1594.92280	1.43204
1592.99424	1.39309
1591.06567	1.35732
1589.13711	1.32403
1587.20854	1.29371
1585.27998	1.26622
1583.35142	1.24060
1581.42285	1.21697
1579.49429	1.19673
1577.56572	1.17884
1575.63716	1.15835
1573.70859	1.14078
1571.78003	1.12918
1569.85146	1.11781
1567.92290	1.10633
1565.99434	1.09834
1564.06577	1.09262
1562.13721	1.08823
1560.20864	1.08593
1558.28008	1.08729
1556.35151	1.09040
1554.42295	1.09201
1552.49438	1.09337
1550.56582	1.09314
1548.63726	1.09028
1546.70869	1.08489
1544.78013	1.07635
1542.85156	1.06444
1540.92300	1.04679
1538.99443	1.01944
1537.06587	0.99860
1535.13730	0.98406
1533.20874	0.96527
1531.28018	0.94526
1529.35161	0.93022
1527.42305	0.91591
1525.49448	0.90119
1523.56592	0.88853
1521.63735	0.87666
1519.70879	0.86513
1517.78022	0.85562
1515.85166	0.84474
1513.92310	0.83277
1511.99453	0.82183
1510.06597	0.81183
1508.13740	0.80201
1506.20884	0.78776
1504.28027	0.77553
1502.35171	0.76831
1500.42314	0.76179
1498.49458	0.75489
1496.56602	0.74713
1494.63745	0.73952
1492.70889	0.73343
1490.78032	0.72797
1488.85176	0.72199
1486.92319	0.71647
1484.99463	0.71204
1483.06606	0.70857
1481.13750	0.70567
1479.20894	0.70332
1477.28037	0.70186
1475.35181	0.70120
1473.42324	0.70084
1471.49468	0.69989
1469.56611	0.69804
1467.63755	0.69567
1465.70898	0.69330
1463.78042	0.69158
1461.85186	0.69074
1459.92329	0.69045
1457.99473	0.69045
1456.06616	0.68990
1454.13760	0.68788
1452.20903	0.68542
1450.28047	0.68296
1448.35190	0.68066
1446.42334	0.67833
1444.49478	0.67594
1442.56621	0.67358
1440.63765	0.67107
1438.70908	0.66832
1436.78052	0.66495
1434.85195	0.66137
1432.92339	0.65860
1430.99482	0.65666
1429.06626	0.65551
1427.13770	0.65508
1425.20913	0.65530
1423.28057	0.65597
1421.35200	0.65634
1419.42344	0.65627
1417.49487	0.65595
1415.56631	0.65520
1413.63774	0.65453
1411.70918	0.65444
1409.78062	0.65519
1407.85205	0.65664
1405.92349	0.65838
1403.99492	0.65988
1402.06636	0.66040
1400.13779	0.65989
1398.20923	0.65836
1396.28066	0.65583
1394.35210	0.65233
1392.42354	0.64829
1390.49497	0.64444
1388.56641	0.64050
1386.63784	0.63573
1384.70928	0.63063
1382.78071	0.62601
1380.85215	0.62169
1378.92358	0.61772
1376.99502	0.61455
1375.06646	0.61236
1373.13789	0.61088
1371.20933	0.60980
1369.28076	0.60882
1367.35220	0.60760
1365.42363	0.60618
1363.49507	0.60476
1361.56650	0.60334
1359.63794	0.60181
1357.70937	0.60034
1355.78081	0.59913
1353.85225	0.59819
1351.92368	0.59734
1349.99512	0.59654
1348.06655	0.59580
1346.13799	0.59510
1344.20942	0.59445
1342.28086	0.59383
1340.35229	0.59325
1338.42373	0.59263
1336.49517	0.59198
1334.56660	0.59146
1332.63804	0.59119
1330.70947	0.59126
1328.78091	0.59168
1326.85234	0.59224
1324.92378	0.59276
1322.99521	0.59324
1321.06665	0.59373
1319.13809	0.59429
1317.20952	0.59475
1315.28096	0.59473
1313.35239	0.59426
1311.42383	0.59370
1309.49526	0.59328
1307.56670	0.59292
1305.63813	0.59256
1303.70957	0.59216
1301.78101	0.59165
1299.85244	0.59091
1297.92388	0.58978
1295.99531	0.58835
1294.06675	0.58688
1292.13818	0.58555
1290.20962	0.58438
1288.28105	0.58320
1286.35249	0.58202
1284.42393	0.58095
1282.49536	0.57972
1280.56680	0.57833
1278.63823	0.57699
1276.70967	0.57578
1274.78110	0.57475
1272.85254	0.57385
1270.92397	0.57305
1268.99541	0.57230
1267.06685	0.57155
1265.13828	0.57082
1263.20972	0.57013
1261.28115	0.56947
1259.35259	0.56896
1257.42402	0.56859
1255.49546	0.56834
1253.56689	0.56831
1251.63833	0.56838
1249.70977	0.56846
1247.78120	0.56855
1245.85264	0.56838
1243.92407	0.56775
1241.99551	0.56684
1240.06694	0.56577
1238.13838	0.56440
1236.20981	0.56261
1234.28125	0.56054
1232.35269	0.55855
1230.42412	0.55659
1228.49556	0.55447
1226.56699	0.55230
1224.63843	0.55037
1222.70986	0.54873
1220.78130	0.54727
1218.85273	0.54600
1216.92417	0.54494
1214.99561	0.54396
1213.06704	0.54297
1211.13848	0.54213
1209.20991	0.54139
1207.28135	0.54058
1205.35278	0.53974
1203.42422	0.53886
1201.49565	0.53790
1199.56709	0.53701
1197.63853	0.53640
1195.70996	0.53587
1193.78140	0.53533
1191.85283	0.53487
1189.92427	0.53452
1187.99570	0.53421
1186.06714	0.53391
1184.13857	0.53384
1182.21001	0.53435
1180.28145	0.53533
1178.35288	0.53646
1176.42432	0.53767
1174.49575	0.53881
1172.56719	0.53953
1170.63862	0.53980
1168.71006	0.53979
1166.78149	0.53958
1164.85293	0.53925
1162.92437	0.53887
1160.99580	0.53841
1159.06724	0.53775
1157.13867	0.53689
1155.21011	0.53586
1153.28154	0.53449
1151.35298	0.53259
1149.42441	0.53027
1147.49585	0.52779
1145.56729	0.52526
1143.63872	0.52261
1141.71016	0.52004
1139.78159	0.51784
1137.85303	0.51606
1135.92446	0.51469
1133.99590	0.51360
1132.06733	0.51261
1130.13877	0.51167
1128.21021	0.51067
1126.28164	0.50962
1124.35308	0.50874
1122.42451	0.50815
1120.49595	0.50783
1118.56738	0.50767
1116.63882	0.50774
1114.71025	0.50800
1112.78169	0.50839
1110.85312	0.50897
1108.92456	0.50973
1106.99600	0.51066
1105.06743	0.51193
1103.13887	0.51357
1101.21030	0.51548
1099.28174	0.51759
1097.35317	0.52001
1095.42461	0.52290
1093.49604	0.52642
1091.56748	0.53069
1089.63892	0.53556
1087.71035	0.54093
1085.78179	0.54705
1083.85322	0.55375
1081.92466	0.56015
1079.99609	0.56540
1078.06753	0.56881
1076.13896	0.56967
1074.21040	0.56766
1072.28184	0.56313
1070.35327	0.55697
1068.42471	0.55017
1066.49614	0.54341
1064.56758	0.53699
1062.63901	0.53106
1060.71045	0.52579
1058.78188	0.52130
1056.85332	0.51733
1054.92476	0.51352
1052.99619	0.51006
1051.06763	0.50708
1049.13906	0.50444
1047.21050	0.50225
1045.28193	0.50042
1043.35337	0.49867
1041.42480	0.49709
1039.49624	0.49587
1037.56768	0.49505
1035.63911	0.49459
1033.71055	0.49437
1031.78198	0.49428
1029.85342	0.49417
1027.92485	0.49397
1025.99629	0.49378
1024.06772	0.49378
1022.13916	0.49413
1020.21060	0.49462
1018.28203	0.49501
1016.35347	0.49554
1014.42490	0.49627
1012.49634	0.49707
1010.56777	0.49796
1008.63921	0.49914
1006.71064	0.50068
1004.78208	0.50246
1002.85352	0.50463
1000.92495	0.50743
998.99639	0.51077
997.06782	0.51445
995.13926	0.51848
993.21069	0.52257
991.28213	0.52603
989.35356	0.52854
987.42500	0.53005
985.49644	0.53070
983.56787	0.53109
981.63931	0.53189
979.71074	0.53325
977.78218	0.53502
975.85361	0.53713
973.92505	0.53963
971.99648	0.54266
970.06792	0.54622
968.13936	0.55009
966.21079	0.55419
964.28223	0.55855
962.35366	0.56324
960.42510	0.56827
958.49653	0.57352
956.56797	0.57907
954.63940	0.58515
952.71084	0.59146
950.78228	0.59777
948.85371	0.60426
946.92515	0.61078
944.99658	0.61719
943.06802	0.62360
941.13945	0.62993
939.21089	0.63586
937.28232	0.64138
935.35376	0.64707
933.42520	0.65303
931.49663	0.65876
929.56807	0.66406
927.63950	0.66913
925.71094	0.67465
923.78237	0.68089
921.85381	0.68755
919.92524	0.69465
917.99668	0.70211
916.06812	0.70957
914.13955	0.71718
912.21099	0.72563
910.28242	0.73457
908.35386	0.74267
906.42529	0.74994
904.49673	0.75814
902.56816	0.76758
900.63960	0.77717
898.71104	0.78717
896.78247	0.79783
894.85391	0.80771
892.92534	0.81624
890.99678	0.82536
889.06821	0.83590
887.13965	0.84677
885.21108	0.85796
883.28252	0.86956
881.35396	0.88120
879.42539	0.89320
877.49683	0.90588
875.56826	0.91853
873.63970	0.93017
871.71113	0.94121
869.78257	0.95237
867.85400	0.96388
865.92544	0.97660
863.99687	0.98994
862.06831	1.00180
860.13975	1.01206
858.21118	1.02110
856.28262	1.03018
854.35405	1.04166
852.42549	1.05417
850.49692	1.06685
848.56836	1.08088
846.63979	1.09417
844.71123	1.10558
842.78267	1.11651
840.85410	1.12558
838.92554	1.13241
836.99697	1.14120
835.06841	1.15368
833.13984	1.16670
831.21128	1.17762
829.28271	1.18936
827.35415	1.20374
825.42559	1.21594
823.49702	1.22462
821.56846	1.23353
819.63989	1.24476
817.71133	1.25540
815.78276	1.26736
813.85420	1.28525
811.92563	1.30394
809.99707	1.31746
808.06851	1.32876
806.13994	1.33961
804.21138	1.33510
802.28281	1.32368
800.35425	1.34134
798.42568	1.38126
796.49712	1.38389
794.56855	1.34866
792.63999	1.34522
790.71143	1.38457
788.78286	1.41514
786.85430	1.42383
784.92573	1.44317
782.99717	1.47703
781.06860	1.51354
779.14004	1.54476
777.21147	1.60919
775.28291	1.69505
773.35435	1.62648
771.42578	1.46032
769.49722	1.34743
767.56865	1.34833
765.64009	1.44435
763.71152	1.48642
761.78296	1.41137
759.85439	1.33869
757.92583	1.29774
755.99727	1.33472
754.06870	1.50600
752.14014	1.60410
750.21157	1.50130
748.28301	1.48500
746.35444	1.52791
744.42588	1.45263
742.49731	1.22598
740.56875	1.04830
738.64019	0.99814
736.71162	0.99159
734.78306	0.85518
732.85449	0.69433
730.92593	0.60104
728.99736	0.50456
727.06880	0.40349
725.14023	0.32285
723.21167	0.18588
721.28311	0.00405
719.35454	-0.02781
717.42598	0.14451
715.49741	0.35651
713.56885	0.45348
711.64028	0.29819
709.71172	0.12347
707.78315	0.07426
705.85459	0.10128
703.92603	0.14671
701.99746	0.20806
700.06890	0.24578
698.14033	0.25933
696.21177	0.25001
694.28320	0.26017
692.35464	0.35960
690.42607	0.59061
688.49751	0.75716
686.56895	0.58723
684.64038	0.43199
682.71182	0.35972
680.78325	0.34171
678.85469	0.37098
676.92612	0.43480
674.99756	0.38168
673.06899	0.27043
671.14043	0.24026
669.21187	0.27113
667.28330	0.34454
665.35474	0.50190
663.42617	0.61495
661.49761	0.49004
659.56904	0.36900
657.64048	0.31706
655.71191	0.29234
653.78335	0.25030
651.85479	0.23336
649.92622	0.30629
647.99766	0.46959
646.06909	0.62500
644.14053	0.57330
642.21196	0.49199
640.28340	0.45809
638.35483	0.38706
636.42627	0.32421
634.49771	0.30065
632.56914	0.26713
630.64058	0.24437
628.71201	0.25060
626.78345	0.25499
624.85488	0.25238
622.92632	0.27729
620.99775	0.33289
619.06919	0.35587
617.14062	0.34958
615.21206	0.36085
613.28350	0.38396
611.35493	0.40317
609.42637	0.38736
607.49780	0.28816
605.56924	0.21061
603.64067	0.24124
601.71211	0.33697
599.78354	0.42768
597.85498	0.40984
595.92642	0.31832
593.99785	0.25930
592.06929	0.22816
590.14072	0.23048
588.21216	0.27230
586.28359	0.25800
584.35503	0.22620
582.42646	0.27088
580.49790	0.36747
578.56934	0.35174
576.64077	0.24561
574.71221	0.20857
572.78364	0.26015
570.85508	0.30011
568.92651	0.34197
566.99795	0.48270
565.06938	0.58068
563.14082	0.41877
561.21226	0.29207
559.28369	0.27703
557.35513	0.34100
555.42656	0.34076
553.49800	0.24337
551.56943	0.21671
549.64087	0.25561
547.71230	0.26851
545.78374	0.26430
543.85518	0.26159
541.92661	0.23832
539.99805	0.22585
538.06948	0.24932
536.14092	0.26082
534.21235	0.24098
532.28379	0.24440
530.35522	0.23549
528.42666	0.20888
526.49810	0.26401
524.56953	0.34381
522.64097	0.34805
520.71240	0.32565
518.78384	0.27573
516.85527	0.24013
514.92671	0.25293
512.99814	0.24205
511.06958	0.22137
509.14102	0.24631
507.21245	0.30101
505.28389	0.30563
503.35532	0.26253
501.42676	0.24380
499.49819	0.25563
