3997.91411	0.07741
3995.98555	0.07787
3994.05698	0.07874
3992.12842	0.07938
3990.19985	0.07968
3988.27129	0.07966
3986.34272	0.07964
3984.41416	0.08018
3982.48560	0.08089
3980.55703	0.08100
3978.62847	0.08085
3976.69990	0.08133
3974.77134	0.08224
3972.84277	0.08270
3970.91421	0.08268
3968.98564	0.08272
3967.05708	0.08257
3965.12852	0.08221
3963.19995	0.08272
3961.27139	0.08379
3959.34282	0.08396
3957.41426	0.08366
3955.48569	0.08381
3953.55713	0.08412
3951.62856	0.08511
3949.70000	0.08743
3947.77144	0.08927
3945.84287	0.08884
3943.91431	0.08841
3941.98574	0.08901
3940.05718	0.08800
3938.12861	0.08568
3936.20005	0.08443
3934.27148	0.08555
3932.34292	0.08879
3930.41436	0.09094
3928.48579	0.08964
3926.55723	0.08809
3924.62866	0.08897
3922.70010	0.08958
3920.77153	0.08845
3918.84297	0.08867
3916.91440	0.09027
3914.98584	0.08922
3913.05728	0.08563
3911.12871	0.08297
3909.20015	0.08249
3907.27158	0.08498
3905.34302	0.09154
3903.41445	0.09988
3901.48589	0.10407
3899.55732	0.10221
3897.62876	0.09639
3895.70020	0.09045
3893.77163	0.08932
3891.84307	0.09304
3889.91450	0.09464
3887.98594	0.09245
3886.05737	0.09353
3884.12881	0.09712
3882.20024	0.09846
3880.27168	0.09852
3878.34312	0.09535
3876.41455	0.09163
3874.48599	0.09377
3872.55742	0.09978
3870.62886	0.10483
3868.70029	0.10607
3866.77173	0.10333
3864.84316	0.10274
3862.91460	0.10358
3860.98604	0.10015
3859.05747	0.09620
3857.12891	0.09738
3855.20034	0.10484
3853.27178	0.11675
3851.34321	0.11837
3849.41465	0.10628
3847.48608	0.09687
3845.55752	0.09460
3843.62896	0.09868
3841.70039	0.10616
3839.77183	0.11378
3837.84326	0.11868
3835.91470	0.11733
3833.98613	0.11240
3832.05757	0.10829
3830.12900	0.10523
3828.20044	0.10397
3826.27187	0.10533
3824.34331	0.10795
3822.41475	0.11337
3820.48618	0.12210
3818.55762	0.12477
3816.62905	0.12189
3814.70049	0.11751
3812.77192	0.11048
3810.84336	0.10611
3808.91479	0.10780
3806.98623	0.11423
3805.05767	0.12008
3803.12910	0.12444
3801.20054	0.13022
3799.27197	0.13106
3797.34341	0.12699
3795.41484	0.12357
3793.48628	0.11953
3791.55771	0.11640
3789.62915	0.11609
3787.70059	0.11793
3785.77202	0.12141
3783.84346	0.12481
3781.91489	0.12679
3779.98633	0.12970
3778.05776	0.13240
3776.12920	0.13115
3774.20063	0.12955
3772.27207	0.13194
3770.34351	0.13807
3768.41494	0.14351
3766.48638	0.14528
3764.55781	0.14544
3762.62925	0.14585
3760.70068	0.14939
3758.77212	0.15632
3756.84355	0.16106
3754.91499	0.16317
3752.98643	0.16935
3751.05786	0.18187
3749.12930	0.19129
3747.20073	0.19151
3745.27217	0.19209
3743.34360	0.19384
3741.41504	0.19245
3739.48647	0.19268
3737.55791	0.19897
3735.62935	0.21186
3733.70078	0.22272
3731.77222	0.22133
3729.84365	0.21550
3727.91509	0.21499
3725.98652	0.22160
3724.05796	0.23084
3722.12939	0.23765
3720.20083	0.24191
3718.27227	0.24510
3716.34370	0.24918
3714.41514	0.25721
3712.48657	0.27287
3710.55801	0.29350
3708.62944	0.30577
3706.70088	0.31025
3704.77231	0.31741
3702.84375	0.33065
3700.91519	0.34854
3698.98662	0.36564
3697.05806	0.38151
3695.12949	0.40046
3693.20093	0.42306
3691.27236	0.45087
3689.34380	0.48575
3687.41523	0.51855
3685.48667	0.54060
3683.55811	0.56123
3681.62954	0.58854
3679.70098	0.62364
3677.77241	0.66386
3675.84385	0.71208
3673.91528	0.76825
3671.98672	0.80835
3670.05815	0.84564
3668.12959	0.89505
3666.20103	0.93576
3664.27246	0.97122
3662.34390	1.01355
3660.41533	1.06159
3658.48677	1.11054
3656.55820	1.16374
3654.62964	1.22148
3652.70107	1.27038
3650.77251	1.31867
3648.84395	1.38593
3646.91538	1.45397
3644.98682	1.49356
3643.05825	1.52445
3641.12969	1.56108
3639.20112	1.60432
3637.27256	1.64889
3635.34399	1.69347
3633.41543	1.73951
3631.48687	1.78414
3629.55830	1.83178
3627.62974	1.89000
3625.70117	1.93525
3623.77261	1.96362
3621.84404	1.99621
3619.91548	2.03852
3617.98691	2.08823
3616.05835	2.13246
3614.12979	2.16944
3612.20122	2.20804
3610.27266	2.24586
3608.34409	2.28613
3606.41553	2.32809
3604.48696	2.36288
3602.55840	2.39573
3600.62983	2.43676
3598.70127	2.48142
3596.77271	2.52200
3594.84414	2.56274
3592.91558	2.60474
3590.98701	2.64344
3589.05845	2.68173
3587.12988	2.72853
3585.20132	2.77491
3583.27275	2.81073
3581.34419	2.84546
3579.41562	2.88554
3577.48706	2.92970
3575.55850	2.97405
3573.62993	3.01755
3571.70137	3.05841
3569.77280	3.09864
3567.84424	3.14648
3565.91567	3.20458
3563.98711	3.25336
3562.05854	3.29013
3560.12998	3.32974
3558.20142	3.37400
3556.27285	3.41918
3554.34429	3.46455
3552.41572	3.51331
3550.48716	3.56336
3548.55859	3.60984
3546.63003	3.65399
3544.70146	3.70067
3542.77290	3.74810
3540.84434	3.79287
3538.91577	3.83882
3536.98721	3.88712
3535.05864	3.93478
3533.13008	3.98011
3531.20151	4.02627
3529.27295	4.07443
3527.34438	4.12505
3525.41582	4.17671
3523.48726	4.22874
3521.55869	4.28261
3519.63013	4.33155
3517.70156	4.37386
3515.77300	4.41665
3513.84443	4.46387
3511.91587	4.51294
3509.98730	4.56263
3508.05874	4.61497
3506.13018	4.66595
3504.20161	4.70943
3502.27305	4.75397
3500.34448	4.80857
3498.41592	4.86154
3496.48735	4.90618
3494.55879	4.95014
3492.63022	4.99807
3490.70166	5.04573
3488.77310	5.09225
3486.84453	5.14267
3484.91597	5.19744
3482.98740	5.25393
3481.05884	5.30777
3479.13027	5.35258
3477.20171	5.39471
3475.27314	5.44346
3473.34458	5.49352
3471.41602	5.53585
3469.48745	5.56873
3467.55889	5.60284
3465.63032	5.65326
3463.70176	5.72171
3461.77319	5.79265
3459.84463	5.84809
3457.91606	5.88344
3455.98750	5.91648
3454.05894	5.96539
3452.13037	6.02655
3450.20181	6.09212
3448.27324	6.15752
3446.34468	6.21368
3444.41611	6.25542
3442.48755	6.29623
3440.55898	6.34805
3438.63042	6.40502
3436.70186	6.44515
3434.77329	6.48006
3432.84473	6.53931
3430.91616	6.59884
3428.98760	6.63962
3427.05903	6.67890
3425.13047	6.72095
3423.20190	6.74834
3421.27334	6.77223
3419.34478	6.81597
3417.41621	6.87451
3415.48765	6.94038
3413.55908	7.01127
3411.63052	7.07413
3409.70195	7.09894
3407.77339	7.10457
3405.84482	7.14346
3403.91626	7.21120
3401.98770	7.25085
3400.05913	7.26402
3398.13057	7.28889
3396.20200	7.33915
3394.27344	7.40961
3392.34487	7.46594
3390.41631	7.52881
3388.48774	7.60859
3386.55918	7.66486
3384.63062	7.67689
3382.70205	7.67295
3380.77349	7.67367
3378.84492	7.67304
3376.91636	7.69584
3374.98779	7.73873
3373.05923	7.77993
3371.13066	7.81158
3369.20210	7.83291
3367.27354	7.80607
3365.34497	7.75242
3363.41641	7.76885
3361.48784	7.90066
3359.55928	8.06683
3357.63071	8.13095
3355.70215	8.14520
3353.77358	8.15833
3351.84502	8.13354
3349.91646	8.08233
3347.98789	8.07596
3346.05933	8.13169
3344.13076	8.18389
3342.20220	8.20077
3340.27363	8.17956
3338.34507	8.17434
3336.41650	8.18208
3334.48794	8.14271
3332.55937	8.08722
3330.63081	8.09492
3328.70225	8.14179
3326.77368	8.18523
3324.84512	8.25565
3322.91655	8.31050
3320.98799	8.30757
3319.05942	8.26846
3317.13086	8.21936
3315.20229	8.16316
3313.27373	8.13385
3311.34517	8.16991
3309.41660	8.26578
3307.48804	8.36213
3305.55947	8.37970
3303.63091	8.32380
3301.70234	8.24075
3299.77378	8.21961
3297.84521	8.24765
3295.91665	8.22516
3293.98809	8.17446
3292.05952	8.16787
3290.13096	8.18731
3288.20239	8.18234
3286.27383	8.19142
3284.34526	8.28725
3282.41670	8.44746
3280.48813	8.46571
3278.55957	8.31563
3276.63101	8.22707
3274.70244	8.26673
3272.77388	8.35224
3270.84531	8.40559
3268.91675	8.41489
3266.98818	8.38661
3265.05962	8.35054
3263.13105	8.34582
3261.20249	8.38252
3259.27393	8.40435
3257.34536	8.34667
3255.41680	8.29928
3253.48823	8.34067
3251.55967	8.33175
3249.63110	8.25812
3247.70254	8.28283
3245.77397	8.35763
3243.84541	8.36399
3241.91685	8.29358
3239.98828	8.18374
3238.05972	8.11075
3236.13115	8.13472
3234.20259	8.22528
3232.27402	8.30340
3230.34546	8.33165
3228.41689	8.29897
3226.48833	8.24923
3224.55977	8.26881
3222.63120	8.30167
3220.70264	8.20679
3218.77407	8.09679
3216.84551	8.09340
3214.91694	8.11660
3212.98838	8.11991
3211.05981	8.07961
3209.13125	7.98967
3207.20269	7.95235
3205.27412	7.95676
3203.34556	7.93665
3201.41699	7.93817
3199.48843	7.94585
3197.55986	7.92176
3195.63130	7.89630
3193.70273	7.86175
3191.77417	7.78555
3189.84561	7.67721
3187.91704	7.58001
3185.98848	7.52025
3184.05991	7.49495
3182.13135	7.47143
3180.20278	7.40982
3178.27422	7.32023
3176.34565	7.24816
3174.41709	7.20474
3172.48853	7.18248
3170.55996	7.16136
3168.63140	7.10199
3166.70283	7.01815
3164.77427	6.94042
3162.84570	6.86220
3160.91714	6.79195
3158.98857	6.74020
3157.06001	6.68466
3155.13145	6.61315
3153.20288	6.53486
3151.27432	6.45732
3149.34575	6.38620
3147.41719	6.32440
3145.48862	6.26461
3143.56006	6.19608
3141.63149	6.12674
3139.70293	6.06039
3137.77437	5.98516
3135.84580	5.91091
3133.91724	5.84787
3131.98867	5.77714
3130.06011	5.69893
3128.13154	5.62681
3126.20298	5.54791
3124.27441	5.46054
3122.34585	5.38201
3120.41729	5.31461
3118.48872	5.25369
3116.56016	5.19732
3114.63159	5.13675
3112.70303	5.06924
3110.77446	4.99785
3108.84590	4.92332
3106.91733	4.85118
3104.98877	4.78294
3103.06021	4.71534
3101.13164	4.64742
3099.20308	4.57878
3097.27451	4.50878
3095.34595	4.44036
3093.41738	4.37674
3091.48882	4.31662
3089.56025	4.25673
3087.63169	4.19368
3085.70312	4.12907
3083.77456	4.06682
3081.84600	4.00765
3079.91743	3.94891
3077.98887	3.88673
3076.06030	3.82345
3074.13174	3.76421
3072.20317	3.70786
3070.27461	3.65094
3068.34604	3.59346
3066.41748	3.53628
3064.48892	3.47997
3062.56035	3.42444
3060.63179	3.36941
3058.70322	3.31636
3056.77466	3.26522
3054.84609	3.21289
3052.91753	3.15858
3050.98896	3.10592
3049.06040	3.05576
3047.13184	3.00511
3045.20327	2.95436
3043.27471	2.90536
3041.34614	2.85744
3039.41758	2.80960
3037.48901	2.76192
3035.56045	2.71524
3033.63188	2.67006
3031.70332	2.62552
3029.77476	2.58085
3027.84619	2.53673
3025.91763	2.49297
3023.98906	2.44894
3022.06050	2.40583
3020.13193	2.36426
3018.20337	2.32350
3016.27480	2.28317
3014.34624	2.24340
3012.41768	2.20460
3010.48911	2.16682
3008.56055	2.12994
3006.63198	2.09360
3004.70342	2.05726
3002.77485	2.02129
3000.84629	1.98638
2998.91772	1.95249
2996.98916	1.91955
2995.06060	1.88744
2993.13203	1.85557
2991.20347	1.82438
2989.27490	1.79444
2987.34634	1.76516
2985.41777	1.73642
2983.48921	1.70816
2981.56064	1.68011
2979.63208	1.65269
2977.70352	1.62622
2975.77495	1.60054
2973.84639	1.57551
2971.91782	1.55100
2969.98926	1.52705
2968.06069	1.50367
2966.13213	1.48043
2964.20356	1.45721
2962.27500	1.43399
2960.34644	1.41043
2958.41787	1.38654
2956.48931	1.36245
2954.56074	1.33848
2952.63218	1.31467
2950.70361	1.29055
2948.77505	1.26666
2946.84648	1.24352
2944.91792	1.22091
2942.98936	1.19903
2941.06079	1.17837
2939.13223	1.15868
2937.20366	1.13925
2935.27510	1.12009
2933.34653	1.10138
2931.41797	1.08308
2929.48940	1.06529
2927.56084	1.04749
2925.63228	1.02932
2923.70371	1.01116
2921.77515	0.99273
2919.84658	0.97377
2917.91802	0.95452
2915.98945	0.93505
2914.06089	0.91607
2912.13232	0.89857
2910.20376	0.88240
2908.27520	0.86653
2906.34663	0.85054
2904.41807	0.83491
2902.48950	0.82005
2900.56094	0.80582
2898.63237	0.79207
2896.70381	0.77874
2894.77524	0.76541
2892.84668	0.75219
2890.91812	0.73963
2888.98955	0.72763
2887.06099	0.71596
2885.13242	0.70488
2883.20386	0.69447
2881.27529	0.68444
2879.34673	0.67465
2877.41816	0.66519
2875.48960	0.65589
2873.56104	0.64618
2871.63247	0.63583
2869.70391	0.62493
2867.77534	0.61356
2865.84678	0.60196
2863.91821	0.59055
2861.98965	0.57971
2860.06108	0.56959
2858.13252	0.56008
2856.20396	0.55096
2854.27539	0.54191
2852.34683	0.53273
2850.41826	0.52341
2848.48970	0.51384
2846.56113	0.50430
2844.63257	0.49550
2842.70400	0.48770
2840.77544	0.48068
2838.84687	0.47395
2836.91831	0.46720
2834.98975	0.46076
2833.06118	0.45477
2831.13262	0.44884
2829.20405	0.44265
2827.27549	0.43638
2825.34692	0.43031
2823.41836	0.42441
2821.48979	0.41849
2819.56123	0.41253
2817.63267	0.40664
2815.70410	0.40088
2813.77554	0.39518
2811.84697	0.38959
2809.91841	0.38417
2807.98984	0.37883
2806.06128	0.37351
2804.13271	0.36811
2802.20415	0.36268
2800.27559	0.35759
2798.34702	0.35290
2796.41846	0.34831
2794.48989	0.34364
2792.56133	0.33894
2790.63276	0.33429
2788.70420	0.32961
2786.77563	0.32494
2784.84707	0.32042
2782.91851	0.31617
2780.98994	0.31216
2779.06138	0.30822
2777.13281	0.30428
2775.20425	0.30045
2773.27568	0.29655
2771.34712	0.29261
2769.41855	0.28889
2767.48999	0.28532
2765.56143	0.28175
2763.63286	0.27828
2761.70430	0.27495
2759.77573	0.27153
2757.84717	0.26801
2755.91860	0.26479
2753.99004	0.26184
2752.06147	0.25887
2750.13291	0.25592
2748.20435	0.25301
2746.27578	0.25011
2744.34722	0.24732
2742.41865	0.24456
2740.49009	0.24184
2738.56152	0.23928
2736.63296	0.23684
2734.70439	0.23435
2732.77583	0.23173
2730.84727	0.22910
2728.91870	0.22668
2726.99014	0.22448
2725.06157	0.22233
2723.13301	0.22013
2721.20444	0.21781
2719.27588	0.21551
2717.34731	0.21340
2715.41875	0.21147
2713.49019	0.20969
2711.56162	0.20790
2709.63306	0.20605
2707.70449	0.20431
2705.77593	0.20275
2703.84736	0.20130
2701.91880	0.19988
2699.99023	0.19839
2698.06167	0.19683
2696.13311	0.19533
2694.20454	0.19386
2692.27598	0.19232
2690.34741	0.19092
2688.41885	0.18976
2686.49028	0.18864
2684.56172	0.18740
2682.63315	0.18615
2680.70459	0.18497
2678.77603	0.18385
2676.84746	0.18272
2674.91890	0.18159
2672.99033	0.18054
2671.06177	0.17953
2669.13320	0.17847
2667.20464	0.17751
2665.27607	0.17671
2663.34751	0.17595
2661.41895	0.17506
2659.49038	0.17413
2657.56182	0.17334
2655.63325	0.17263
2653.70469	0.17187
2651.77612	0.17122
2649.84756	0.17076
2647.91899	0.17021
2645.99043	0.16944
2644.06187	0.16869
2642.13330	0.16811
2640.20474	0.16754
2638.27617	0.16697
2636.34761	0.16658
2634.41904	0.16630
2632.49048	0.16592
2630.56191	0.16544
2628.63335	0.16504
2626.70479	0.16473
2624.77622	0.16436
2622.84766	0.16400
2620.91909	0.16372
2618.99053	0.16351
2617.06196	0.16333
2615.13340	0.16317
2613.20483	0.16298
2611.27627	0.16277
2609.34771	0.16258
2607.41914	0.16240
2605.49058	0.16222
2603.56201	0.16203
2601.63345	0.16191
2599.70488	0.16191
2597.77632	0.16196
2595.84775	0.16207
2593.91919	0.16217
2591.99062	0.16215
2590.06206	0.16213
2588.13350	0.16232
2586.20493	0.16273
2584.27637	0.16308
2582.34780	0.16326
2580.41924	0.16342
2578.49067	0.16359
2576.56211	0.16373
2574.63354	0.16401
2572.70498	0.16440
2570.77642	0.16478
2568.84785	0.16519
2566.91929	0.16561
2564.99072	0.16595
2563.06216	0.16627
2561.13359	0.16668
2559.20503	0.16711
2557.27646	0.16759
2555.34790	0.16804
2553.41934	0.16835
2551.49077	0.16871
2549.56221	0.16922
2547.63364	0.16982
2545.70508	0.17050
2543.77651	0.17114
2541.84795	0.17171
2539.91938	0.17230
2537.99082	0.17295
2536.06226	0.17362
2534.13369	0.17426
2532.20513	0.17485
2530.27656	0.17537
2528.34800	0.17597
2526.41943	0.17674
2524.49087	0.17755
2522.56230	0.17830
2520.63374	0.17905
2518.70518	0.17979
2516.77661	0.18049
2514.84805	0.18123
2512.91948	0.18197
2510.99092	0.18265
2509.06235	0.18340
2507.13379	0.18429
2505.20522	0.18516
2503.27666	0.18585
2501.34810	0.18656
2499.41953	0.18750
2497.49097	0.18844
2495.56240	0.18917
2493.63384	0.18982
2491.70527	0.19060
2489.77671	0.19146
2487.84814	0.19230
2485.91958	0.19316
2483.99102	0.19410
2482.06245	0.19509
2480.13389	0.19599
2478.20532	0.19676
2476.27676	0.19756
2474.34819	0.19844
2472.41963	0.19932
2470.49106	0.20014
2468.56250	0.20098
2466.63394	0.20191
2464.70537	0.20299
2462.77681	0.20410
2460.84824	0.20501
2458.91968	0.20578
2456.99111	0.20667
2455.06255	0.20769
2453.13398	0.20867
2451.20542	0.20963
2449.27686	0.21058
2447.34829	0.21154
2445.41973	0.21257
2443.49116	0.21359
2441.56260	0.21451
2439.63403	0.21543
2437.70547	0.21647
2435.77690	0.21756
2433.84834	0.21865
2431.91978	0.21972
2429.99121	0.22073
2428.06265	0.22171
2426.13408	0.22279
2424.20552	0.22391
2422.27695	0.22496
2420.34839	0.22606
2418.41982	0.22722
2416.49126	0.22833
2414.56270	0.22944
2412.63413	0.23056
2410.70557	0.23171
2408.77700	0.23297
2406.84844	0.23432
2404.91987	0.23561
2402.99131	0.23673
2401.06274	0.23776
2399.13418	0.23886
2397.20562	0.24001
2395.27705	0.24117
2393.34849	0.24249
2391.41992	0.24391
2389.49136	0.24532
2387.56279	0.24696
2385.63423	0.24912
2383.70566	0.25202
2381.77710	0.25569
2379.84854	0.25991
2377.91997	0.26455
2375.99141	0.26977
2374.06284	0.27578
2372.13428	0.28272
2370.20571	0.29040
2368.27715	0.29813
2366.34858	0.30497
2364.42002	0.31038
2362.49146	0.31486
2360.56289	0.31847
2358.63433	0.31980
2356.70576	0.31821
2354.77720	0.31471
2352.84863	0.31028
2350.92007	0.30559
2348.99150	0.30274
2347.06294	0.30368
2345.13437	0.30915
2343.20581	0.31648
2341.27725	0.32067
2339.34868	0.32176
2337.42012	0.32212
2335.49155	0.32286
2333.56299	0.32364
2331.63442	0.32434
2329.70586	0.32503
2327.77729	0.32534
2325.84873	0.32518
2323.92017	0.32497
2321.99160	0.32471
2320.06304	0.32396
2318.13447	0.32288
2316.20591	0.32209
2314.27734	0.32191
2312.34878	0.32227
2310.42021	0.32283
2308.49165	0.32322
2306.56309	0.32337
2304.63452	0.32355
2302.70596	0.32413
2300.77739	0.32504
2298.84883	0.32596
2296.92026	0.32693
2294.99170	0.32803
2293.06313	0.32912
2291.13457	0.33016
2289.20601	0.33138
2287.27744	0.33270
2285.34888	0.33399
2283.42031	0.33556
2281.49175	0.33756
2279.56318	0.33976
2277.63462	0.34190
2275.70605	0.34398
2273.77749	0.34609
2271.84893	0.34817
2269.92036	0.35022
2267.99180	0.35231
2266.06323	0.35442
2264.13467	0.35651
2262.20610	0.35864
2260.27754	0.36081
2258.34897	0.36293
2256.42041	0.36492
2254.49185	0.36686
2252.56328	0.36887
2250.63472	0.37090
2248.70615	0.37293
2246.77759	0.37513
2244.84902	0.37742
2242.92046	0.37958
2240.99189	0.38171
2239.06333	0.38392
2237.13477	0.38611
2235.20620	0.38823
2233.27764	0.39035
2231.34907	0.39256
2229.42051	0.39489
2227.49194	0.39731
2225.56338	0.39971
2223.63481	0.40194
2221.70625	0.40400
2219.77769	0.40606
2217.84912	0.40822
2215.92056	0.41053
2213.99199	0.41282
2212.06343	0.41493
2210.13486	0.41699
2208.20630	0.41913
2206.27773	0.42124
2204.34917	0.42323
2202.42061	0.42523
2200.49204	0.42733
2198.56348	0.42944
2196.63491	0.43148
2194.70635	0.43351
2192.77778	0.43550
2190.84922	0.43727
2188.92065	0.43890
2186.99209	0.44070
2185.06353	0.44262
2183.13496	0.44441
2181.20640	0.44606
2179.27783	0.44767
2177.34927	0.44928
2175.42070	0.45086
2173.49214	0.45242
2171.56357	0.45392
2169.63501	0.45525
2167.70645	0.45651
2165.77788	0.45783
2163.84932	0.45916
2161.92075	0.46034
2159.99219	0.46133
2158.06362	0.46228
2156.13506	0.46331
2154.20649	0.46427
2152.27793	0.46506
2150.34937	0.46579
2148.42080	0.46649
2146.49224	0.46712
2144.56367	0.46765
2142.63511	0.46813
2140.70654	0.46863
2138.77798	0.46903
2136.84941	0.46914
2134.92085	0.46902
2132.99229	0.46893
2131.06372	0.46896
2129.13516	0.46898
2127.20659	0.46883
2125.27803	0.46849
2123.34946	0.46803
2121.42090	0.46746
2119.49233	0.46686
2117.56377	0.46631
2115.63521	0.46569
2113.70664	0.46483
2111.77808	0.46388
2109.84951	0.46298
2107.92095	0.46206
2105.99238	0.46100
2104.06382	0.45980
2102.13525	0.45852
2100.20669	0.45724
2098.27812	0.45585
2096.34956	0.45429
2094.42100	0.45265
2092.49243	0.45109
2090.56387	0.44956
2088.63530	0.44783
2086.70674	0.44592
2084.77817	0.44397
2082.84961	0.44206
2080.92104	0.44010
2078.99248	0.43800
2077.06392	0.43576
2075.13535	0.43356
2073.20679	0.43150
2071.27822	0.42937
2069.34966	0.42713
2067.42109	0.42497
2065.49253	0.42286
2063.56396	0.42042
2061.63540	0.41776
2059.70684	0.41523
2057.77827	0.41273
2055.84971	0.41010
2053.92114	0.40742
2051.99258	0.40478
2050.06401	0.40218
2048.13545	0.39954
2046.20688	0.39685
2044.27832	0.39422
2042.34976	0.39171
2040.42119	0.38914
2038.49263	0.38627
2036.56406	0.38331
2034.63550	0.38046
2032.70693	0.37761
2030.77837	0.37477
2028.84980	0.37199
2026.92124	0.36934
2024.99268	0.36669
2023.06411	0.36389
2021.13555	0.36107
2019.20698	0.35862
2017.27842	0.35629
2015.34985	0.35333
2013.42129	0.34999
2011.49272	0.34699
2009.56416	0.34436
2007.63560	0.34174
2005.70703	0.33900
2003.77847	0.33624
2001.84990	0.33354
1999.92134	0.33086
1997.99277	0.32817
1996.06421	0.32565
1994.13564	0.32372
1992.20708	0.32205
1990.27852	0.31957
1988.34995	0.31639
1986.42139	0.31328
1984.49282	0.31041
1982.56426	0.30783
1980.63569	0.30544
1978.70713	0.30312
1976.77856	0.30080
1974.85000	0.29853
1972.92144	0.29632
1970.99287	0.29432
1969.06431	0.29287
1967.13574	0.29157
1965.20718	0.28936
1963.27861	0.28663
1961.35005	0.28435
1959.42148	0.28238
1957.49292	0.28048
1955.56436	0.27867
1953.63579	0.27687
1951.70723	0.27504
1949.77866	0.27338
1947.85010	0.27209
1945.92153	0.27127
1943.99297	0.27085
1942.06440	0.26982
1940.13584	0.26729
1938.20728	0.26450
1936.27871	0.26263
1934.35015	0.26135
1932.42158	0.26016
1930.49302	0.25885
1928.56445	0.25756
1926.63589	0.25660
1924.70732	0.25644
1922.77876	0.25657
1920.85020	0.25584
1918.92163	0.25491
1916.99307	0.25387
1915.06450	0.25195
1913.13594	0.25030
1911.20737	0.24992
1909.27881	0.24991
1907.35024	0.24908
1905.42168	0.24776
1903.49312	0.24674
1901.56455	0.24602
1899.63599	0.24545
1897.70742	0.24528
1895.77886	0.24546
1893.85029	0.24533
1891.92173	0.24511
1889.99316	0.24553
1888.06460	0.24527
1886.13604	0.24401
1884.20747	0.24314
1882.27891	0.24272
1880.35034	0.24240
1878.42178	0.24222
1876.49321	0.24216
1874.56465	0.24222
1872.63608	0.24289
1870.70752	0.24506
1868.77896	0.24806
1866.85039	0.24826
1864.92183	0.24574
1862.99326	0.24397
1861.06470	0.24370
1859.13613	0.24407
1857.20757	0.24433
1855.27900	0.24454
1853.35044	0.24490
1851.42187	0.24568
1849.49331	0.24708
1847.56475	0.24913
1845.63618	0.25171
1843.70762	0.25353
1841.77905	0.25266
1839.85049	0.25121
1837.92192	0.25150
1835.99336	0.25256
1834.06479	0.25355
1832.13623	0.25563
1830.20767	0.25923
1828.27910	0.26136
1826.35054	0.26147
1824.42197	0.26186
1822.49341	0.26181
1820.56484	0.26179
1818.63628	0.26288
1816.70771	0.26456
1814.77915	0.26621
1812.85059	0.26865
1810.92202	0.27178
1808.99346	0.27385
1807.06489	0.27490
1805.13633	0.27650
1803.20776	0.27967
1801.27920	0.28383
1799.35063	0.28717
1797.42207	0.28909
1795.49351	0.29160
1793.56494	0.29609
1791.63638	0.30091
1789.70781	0.30236
1787.77925	0.30247
1785.85068	0.30491
1783.92212	0.30904
1781.99355	0.31373
1780.06499	0.31848
1778.13643	0.32258
1776.20786	0.32691
1774.27930	0.33335
1772.35073	0.34193
1770.42217	0.34809
1768.49360	0.35086
1766.56504	0.35369
1764.63647	0.35813
1762.70791	0.36502
1760.77935	0.37349
1758.85078	0.38037
1756.92222	0.38730
1754.99365	0.39482
1753.06509	0.40247
1751.13652	0.41352
1749.20796	0.42673
1747.27939	0.43691
1745.35083	0.44457
1743.42227	0.45334
1741.49370	0.46366
1739.56514	0.47571
1737.63657	0.48767
1735.70801	0.49983
1733.77944	0.51897
1731.85088	0.53802
1729.92231	0.55039
1727.99375	0.56330
1726.06519	0.57877
1724.13662	0.59734
1722.20806	0.61800
1720.27949	0.63853
1718.35093	0.66481
1716.42236	0.70031
1714.49380	0.72847
1712.56523	0.74933
1710.63667	0.77129
1708.70811	0.79746
1706.77954	0.82912
1704.85098	0.86640
1702.92241	0.89902
1700.99385	0.93261
1699.06528	0.98204
1697.13672	1.02517
1695.20815	1.06654
1693.27959	1.10649
1691.35103	1.14101
1689.42246	1.18342
1687.49390	1.22910
1685.56533	1.27498
1683.63677	1.34352
1681.70820	1.40981
1679.77964	1.45078
1677.85107	1.49102
1675.92251	1.53948
1673.99395	1.60044
1672.06538	1.65571
1670.13682	1.71078
1668.20825	1.77934
1666.27969	1.83410
1664.35112	1.88329
1662.42256	1.94751
1660.49399	2.01958
1658.56543	2.07605
1656.63687	2.12332
1654.70830	2.16867
1652.77974	2.23336
1650.85117	2.28848
1648.92261	2.30803
1646.99404	2.33272
1645.06548	2.35564
1643.13691	2.37014
1641.20835	2.37872
1639.27979	2.38786
1637.35122	2.39493
1635.42266	2.39358
1633.49409	2.38031
1631.56553	2.36150
1629.63696	2.34089
1627.70840	2.30880
1625.77983	2.27292
1623.85127	2.23069
1621.92271	2.17825
1619.99414	2.12968
1618.06558	2.08387
1616.13701	2.01901
1614.20845	1.94871
1612.27988	1.89423
1610.35132	1.84007
1608.42275	1.78190
1606.49419	1.72408
1604.56562	1.67105
1602.63706	1.62031
1600.70850	1.57073
1598.77993	1.52505
1596.85137	1.48279
1594.92280	1.44209
1592.99424	1.40282
1591.06567	1.36741
1589.13711	1.33476
1587.20854	1.30431
1585.27998	1.27627
1583.35142	1.25075
1581.42285	1.22860
1579.49429	1.21136
1577.56572	1.19789
1575.63716	1.18064
1573.70859	1.16236
1571.78003	1.15086
1569.85146	1.14224
1567.92290	1.13237
1565.99434	1.12439
1564.06577	1.12027
1562.13721	1.11964
1560.20864	1.12481
1558.28008	1.13624
1556.35151	1.13912
1554.42295	1.13800
1552.49438	1.13893
1550.56582	1.13991
1548.63726	1.13840
1546.70869	1.13421
1544.78013	1.12890
1542.85156	1.12205
1540.92300	1.10781
1538.99443	1.07500
1537.06587	1.04531
1535.13730	1.02702
1533.20874	1.00596
1531.28018	0.98207
1529.35161	0.96465
1527.42305	0.95053
1525.49448	0.93672
1523.56592	0.92537
1521.63735	0.91488
1519.70879	0.90197
1517.78022	0.88997
1515.85166	0.87572
1513.92310	0.85927
1511.99453	0.84603
1510.06597	0.83771
1508.13740	0.83296
1506.20884	0.81861
1504.28027	0.79770
1502.35171	0.78583
1500.42314	0.77878
1498.49458	0.77304
1496.56602	0.76505
1494.63745	0.75486
1492.70889	0.74765
1490.78032	0.74411
1488.85176	0.73971
1486.92319	0.73154
1484.99463	0.72341
1483.06606	0.71797
1481.13750	0.71465
1479.20894	0.71260
1477.28037	0.71252
1475.35181	0.71475
1473.42324	0.71761
1471.49468	0.71630
1469.56611	0.71086
1467.63755	0.70689
1465.70898	0.70566
1463.78042	0.70478
1461.85186	0.70368
1459.92329	0.70541
1457.99473	0.71049
1456.06616	0.71133
1454.13760	0.70485
1452.20903	0.69924
1450.28047	0.69582
1448.35190	0.69353
1446.42334	0.69048
1444.49478	0.68679
1442.56621	0.68375
1440.63765	0.68148
1438.70908	0.68021
1436.78052	0.67871
1434.85195	0.67450
1432.92339	0.67010
1430.99482	0.66793
1429.06626	0.66688
1427.13770	0.66603
1425.20913	0.66642
1423.28057	0.66787
1421.35200	0.66945
1419.42344	0.67162
1417.49487	0.67206
1415.56631	0.66934
1413.63774	0.66707
1411.70918	0.66665
1409.78062	0.66754
1407.85205	0.66945
1405.92349	0.67240
1403.99492	0.67479
1402.06636	0.67539
1400.13779	0.67574
1398.20923	0.67584
1396.28066	0.67399
1394.35210	0.66936
1392.42354	0.66293
1390.49497	0.65751
1388.56641	0.65353
1386.63784	0.64869
1384.70928	0.64212
1382.78071	0.63577
1380.85215	0.63058
1378.92358	0.62659
1376.99502	0.62401
1375.06646	0.62270
1373.13789	0.62102
1371.20933	0.61871
1369.28076	0.61714
1367.35220	0.61584
1365.42363	0.61448
1363.49507	0.61372
1361.56650	0.61240
1359.63794	0.60974
1357.70937	0.60736
1355.78081	0.60597
1353.85225	0.60510
1351.92368	0.60433
1349.99512	0.60358
1348.06655	0.60280
1346.13799	0.60198
1344.20942	0.60133
1342.28086	0.60147
1340.35229	0.60247
1338.42373	0.60254
1336.49517	0.60083
1334.56660	0.59912
1332.63804	0.59850
1330.70947	0.59869
1328.78091	0.59917
1326.85234	0.59987
1324.92378	0.60078
1322.99521	0.60192
1321.06665	0.60334
1319.13809	0.60454
1317.20952	0.60486
1315.28096	0.60466
1313.35239	0.60445
1311.42383	0.60388
1309.49526	0.60303
1307.56670	0.60246
1305.63813	0.60218
1303.70957	0.60181
1301.78101	0.60114
1299.85244	0.60027
1297.92388	0.59923
1295.99531	0.59800
1294.06675	0.59660
1292.13818	0.59517
1290.20962	0.59377
1288.28105	0.59247
1286.35249	0.59126
1284.42393	0.58998
1282.49536	0.58866
1280.56680	0.58739
1278.63823	0.58602
1276.70967	0.58453
1274.78110	0.58320
1272.85254	0.58229
1270.92397	0.58157
1268.99541	0.58072
1267.06685	0.57986
1265.13828	0.57910
1263.20972	0.57828
1261.28115	0.57749
1259.35259	0.57687
1257.42402	0.57624
1255.49546	0.57569
1253.56689	0.57552
1251.63833	0.57576
1249.70977	0.57609
1247.78120	0.57633
1245.85264	0.57637
1243.92407	0.57594
1241.99551	0.57499
1240.06694	0.57359
1238.13838	0.57171
1236.20981	0.56945
1234.28125	0.56700
1232.35269	0.56453
1230.42412	0.56227
1228.49556	0.56034
1226.56699	0.55849
1224.63843	0.55654
1222.70986	0.55467
1220.78130	0.55305
1218.85273	0.55160
1216.92417	0.55025
1214.99561	0.54907
1213.06704	0.54805
1211.13848	0.54718
1209.20991	0.54647
1207.28135	0.54573
1205.35278	0.54478
1203.42422	0.54372
1201.49565	0.54279
1199.56709	0.54199
1197.63853	0.54119
1195.70996	0.54046
1193.78140	0.53991
1191.85283	0.53949
1189.92427	0.53911
1187.99570	0.53883
1186.06714	0.53875
1184.13857	0.53887
1182.21001	0.53929
1180.28145	0.54014
1178.35288	0.54136
1176.42432	0.54269
1174.49575	0.54385
1172.56719	0.54442
1170.63862	0.54436
1168.71006	0.54395
1166.78149	0.54326
1164.85293	0.54234
1162.92437	0.54141
1160.99580	0.54056
1159.06724	0.53970
1157.13867	0.53864
1155.21011	0.53738
1153.28154	0.53602
1151.35298	0.53443
1149.42441	0.53246
1147.49585	0.53012
1145.56729	0.52753
1143.63872	0.52497
1141.71016	0.52271
1139.78159	0.52062
1137.85303	0.51872
1135.92446	0.51731
1133.99590	0.51633
1132.06733	0.51555
1130.13877	0.51480
1128.21021	0.51381
1126.28164	0.51265
1124.35308	0.51170
1122.42451	0.51092
1120.49595	0.51010
1118.56738	0.50964
1116.63882	0.50981
1114.71025	0.51007
1112.78169	0.51022
1110.85312	0.51051
1108.92456	0.51104
1106.99600	0.51192
1105.06743	0.51312
1103.13887	0.51445
1101.21030	0.51616
1099.28174	0.51837
1097.35317	0.52084
1095.42461	0.52359
1093.49604	0.52681
1091.56748	0.53056
1089.63892	0.53512
1087.71035	0.54056
1085.78179	0.54653
1083.85322	0.55263
1081.92466	0.55848
1079.99609	0.56346
1078.06753	0.56657
1076.13896	0.56687
1074.21040	0.56452
1072.28184	0.56047
1070.35327	0.55518
1068.42471	0.54880
1066.49614	0.54203
1064.56758	0.53550
1062.63901	0.52950
1060.71045	0.52414
1058.78188	0.51935
1056.85332	0.51511
1054.92476	0.51153
1052.99619	0.50848
1051.06763	0.50562
1049.13906	0.50295
1047.21050	0.50058
1045.28193	0.49831
1043.35337	0.49609
1041.42480	0.49420
1039.49624	0.49286
1037.56768	0.49204
1035.63911	0.49154
1033.71055	0.49112
1031.78198	0.49075
1029.85342	0.49053
1027.92485	0.49053
1025.99629	0.49083
1024.06772	0.49136
1022.13916	0.49202
1020.21060	0.49288
1018.28203	0.49385
1016.35347	0.49477
1014.42490	0.49562
1012.49634	0.49646
1010.56777	0.49762
1008.63921	0.49913
1006.71064	0.50077
1004.78208	0.50261
1002.85352	0.50480
1000.92495	0.50743
998.99639	0.51066
997.06782	0.51439
995.13926	0.51835
993.21069	0.52243
991.28213	0.52635
989.35356	0.52951
987.42500	0.53148
985.49644	0.53255
983.56787	0.53326
981.63931	0.53396
979.71074	0.53502
977.78218	0.53672
975.85361	0.53892
973.92505	0.54149
971.99648	0.54455
970.06792	0.54817
968.13936	0.55216
966.21079	0.55627
964.28223	0.56047
962.35366	0.56514
960.42510	0.57049
958.49653	0.57610
956.56797	0.58165
954.63940	0.58738
952.71084	0.59341
950.78228	0.59974
948.85371	0.60632
946.92515	0.61277
944.99658	0.61906
943.06802	0.62548
941.13945	0.63186
939.21089	0.63784
937.28232	0.64353
935.35376	0.64916
933.42520	0.65474
931.49663	0.66020
929.56807	0.66576
927.63950	0.67188
925.71094	0.67850
923.78237	0.68519
921.85381	0.69180
919.92524	0.69857
917.99668	0.70563
916.06812	0.71288
914.13955	0.72043
912.21099	0.72789
910.28242	0.73527
908.35386	0.74343
906.42529	0.75198
904.49673	0.76035
902.56816	0.76933
900.63960	0.77903
898.71104	0.78883
896.78247	0.79890
894.85391	0.80901
892.92534	0.81906
890.99678	0.82988
889.06821	0.84151
887.13965	0.85265
885.21108	0.86281
883.28252	0.87360
881.35396	0.88556
879.42539	0.89764
877.49683	0.90983
875.56826	0.92224
873.63970	0.93397
871.71113	0.94437
869.78257	0.95414
867.85400	0.96420
865.92544	0.97476
863.99687	0.98618
862.06831	0.99884
860.13975	1.01231
858.21118	1.02562
856.28262	1.03769
854.35405	1.04823
852.42549	1.05909
850.49692	1.07211
848.56836	1.08561
846.63979	1.09742
844.71123	1.10861
842.78267	1.12024
840.85410	1.13108
838.92554	1.14107
836.99697	1.15172
835.06841	1.16200
833.13984	1.17293
831.21128	1.18717
829.28271	1.20130
827.35415	1.21393
825.42559	1.22889
823.49702	1.24527
821.56846	1.25926
819.63989	1.26756
817.71133	1.26641
815.78276	1.26306
813.85420	1.27022
811.92563	1.28768
809.99707	1.30183
808.06851	1.30952
806.13994	1.33112
804.21138	1.36247
802.28281	1.36373
800.35425	1.34296
798.42568	1.34966
796.49712	1.38205
794.56855	1.40331
792.63999	1.40730
790.71143	1.40538
788.78286	1.42218
786.85430	1.43900
784.92573	1.41504
782.99717	1.40857
781.06860	1.47724
779.14004	1.57956
777.21147	1.60000
775.28291	1.56683
773.35435	1.55183
771.42578	1.54590
769.49722	1.55601
767.56865	1.57898
765.64009	1.55375
763.71152	1.49698
761.78296	1.48772
759.85439	1.54471
757.92583	1.47834
755.99727	1.28497
754.06870	1.18553
752.14014	1.18985
750.21157	1.24097
748.28301	1.29258
746.35444	1.46969
744.42588	4.46656
742.49731	1.61798
740.56875	1.18383
738.64019	1.12802
736.71162	1.05903
734.78306	0.93324
732.85449	0.90893
730.92593	0.93352
728.99736	0.86947
727.06880	0.70020
725.14023	0.51166
723.21167	0.43862
721.28311	0.46027
719.35454	0.37166
717.42598	0.28352
715.49741	0.32467
713.56885	0.46210
711.64028	4.26984
709.71172	1.10421
707.78315	0.54126
705.85459	0.90592
703.92603	0.84372
701.99746	0.39549
700.06890	0.31614
698.14033	0.37102
696.21177	0.40380
694.28320	0.40359
692.35464	0.38714
690.42607	0.34579
688.49751	0.28594
686.56895	0.25713
684.64038	0.27591
682.71182	0.28744
680.78325	0.30361
678.85469	0.31634
676.92612	0.30647
674.99756	0.40540
673.06899	0.56430
671.14043	0.44509
669.21187	0.32786
667.28330	0.34562
665.35474	0.42255
663.42617	0.42373
661.49761	0.37531
659.56904	0.34670
657.64048	0.28794
655.71191	0.26452
653.78335	0.30150
651.85479	0.26905
649.92622	0.20702
647.99766	0.20198
646.06909	0.25056
644.14053	0.28193
642.21196	0.26141
640.28340	0.26570
638.35483	0.31005
636.42627	0.35361
634.49771	0.42863
632.56914	0.64293
630.64058	1.49944
628.71201	1.20735
626.78345	0.51877
624.85488	0.33101
622.92632	0.33862
620.99775	0.37666
619.06919	0.29917
617.14062	0.24394
615.21206	0.26004
613.28350	0.32815
611.35493	0.38351
609.42637	0.38526
607.49780	0.39542
605.56924	0.39603
603.64067	0.33311
601.71211	0.24867
599.78354	0.15026
597.85498	0.06336
595.92642	0.03043
593.99785	0.07690
592.06929	0.20272
590.14072	0.26914
588.21216	0.24736
586.28359	0.23701
584.35503	0.29510
582.42646	0.37072
580.49790	0.29777
578.56934	0.21374
576.64077	0.20155
574.71221	0.25240
572.78364	0.30791
570.85508	0.26539
568.92651	0.17425
566.99795	0.13634
565.06938	0.15289
563.14082	0.18358
561.21226	0.24870
559.28369	0.35471
557.35513	0.35811
555.42656	0.21691
553.49800	0.15708
551.56943	0.19152
549.64087	0.19395
547.71230	0.15494
545.78374	0.16956
543.85518	0.23155
541.92661	0.30349
539.99805	0.33851
538.06948	0.30592
536.14092	0.28766
534.21235	0.29950
532.28379	0.30638
530.35522	0.31572
528.42666	0.32339
526.49810	0.32439
524.56953	0.36695
522.64097	0.41414
520.71240	0.35344
518.78384	0.28600
516.85527	0.27458
514.92671	0.30159
512.99814	0.30212
511.06958	0.25794
509.14102	0.20232
507.21245	0.15145
505.28389	0.12822
503.35532	0.14702
501.42676	0.17846
499.49819	0.19283
