3997.91411	0.07196
3995.98555	0.07242
3994.05698	0.07279
3992.12842	0.07307
3990.19985	0.07356
3988.27129	0.07389
3986.34272	0.07380
3984.41416	0.07373
3982.48560	0.07401
3980.55703	0.07432
3978.62847	0.07440
3976.69990	0.07470
3974.77134	0.07538
3972.84277	0.07584
3970.91421	0.07584
3968.98564	0.07576
3967.05708	0.07577
3965.12852	0.07576
3963.19995	0.07604
3961.27139	0.07654
3959.34282	0.07671
3957.41426	0.07679
3955.48569	0.07714
3953.55713	0.07727
3951.62856	0.07738
3949.70000	0.07823
3947.77144	0.07922
3945.84287	0.07932
3943.91431	0.07929
3941.98574	0.07946
3940.05718	0.07863
3938.12861	0.07738
3936.20005	0.07712
3934.27148	0.07762
3932.34292	0.07843
3930.41436	0.07917
3928.48579	0.07905
3926.55723	0.07864
3924.62866	0.07894
3922.70010	0.07900
3920.77153	0.07818
3918.84297	0.07798
3916.91440	0.07882
3914.98584	0.07881
3913.05728	0.07733
3911.12871	0.07602
3909.20015	0.07560
3907.27158	0.07623
3905.34302	0.07865
3903.41445	0.08222
3901.48589	0.08409
3899.55732	0.08342
3897.62876	0.08129
3895.70020	0.07893
3893.77163	0.07836
3891.84307	0.07987
3889.91450	0.08069
3887.98594	0.07990
3886.05737	0.08039
3884.12881	0.08197
3882.20024	0.08245
3880.27168	0.08249
3878.34312	0.08157
3876.41455	0.08027
3874.48599	0.08130
3872.55742	0.08397
3870.62886	0.08579
3868.70029	0.08579
3866.77173	0.08460
3864.84316	0.08450
3862.91460	0.08509
3860.98604	0.08415
3859.05747	0.08288
3857.12891	0.08347
3855.20034	0.08635
3853.27178	0.09123
3851.34321	0.09290
3849.41465	0.08863
3847.48608	0.08480
3845.55752	0.08387
3843.62896	0.08570
3841.70039	0.08904
3839.77183	0.09244
3837.84326	0.09465
3835.91470	0.09443
3833.98613	0.09292
3832.05757	0.09174
3830.12900	0.09092
3828.20044	0.09078
3826.27187	0.09188
3824.34331	0.09356
3822.41475	0.09612
3820.48618	0.10020
3818.55762	0.10213
3816.62905	0.10164
3814.70049	0.10026
3812.77192	0.09760
3810.84336	0.09613
3808.91479	0.09725
3806.98623	0.10058
3805.05767	0.10402
3803.12910	0.10649
3801.20054	0.10927
3799.27197	0.11036
3797.34341	0.10944
3795.41484	0.10890
3793.48628	0.10836
3791.55771	0.10796
3789.62915	0.10843
3787.70059	0.10979
3785.77202	0.11200
3783.84346	0.11426
3781.91489	0.11584
3779.98633	0.11784
3778.05776	0.11992
3776.12920	0.12040
3774.20063	0.12076
3772.27207	0.12288
3770.34351	0.12666
3768.41494	0.12984
3766.48638	0.13107
3764.55781	0.13224
3762.62925	0.13407
3760.70068	0.13687
3758.77212	0.14096
3756.84355	0.14449
3754.91499	0.14678
3752.98643	0.15027
3751.05786	0.15654
3749.12930	0.16240
3747.20073	0.16433
3745.27217	0.16595
3743.34360	0.16903
3741.41504	0.17118
3739.48647	0.17294
3737.55791	0.17693
3735.62935	0.18449
3733.70078	0.19233
3731.77222	0.19508
3729.84365	0.19545
3727.91509	0.19785
3725.98652	0.20346
3724.05796	0.21067
3722.12939	0.21753
3720.20083	0.22414
3718.27227	0.23056
3716.34370	0.23705
3714.41514	0.24474
3712.48657	0.25616
3710.55801	0.27206
3708.62944	0.28593
3706.70088	0.29508
3704.77231	0.30447
3702.84375	0.31747
3700.91519	0.33507
3698.98662	0.35355
3697.05806	0.37076
3695.12949	0.38951
3693.20093	0.41013
3691.27236	0.43356
3689.34380	0.46367
3687.41523	0.49783
3685.48667	0.52600
3683.55811	0.55076
3681.62954	0.57905
3679.70098	0.61230
3677.77241	0.64805
3675.84385	0.69018
3673.91528	0.74363
3671.98672	0.78632
3670.05815	0.82521
3668.12959	0.87700
3666.20103	0.92311
3664.27246	0.96265
3662.34390	1.00668
3660.41533	1.05493
3658.48677	1.10272
3656.55820	1.15350
3654.62964	1.20962
3652.70107	1.25719
3650.77251	1.29986
3648.84395	1.35836
3646.91538	1.42660
3644.98682	1.47495
3643.05825	1.51245
3641.12969	1.55212
3639.20112	1.59670
3637.27256	1.64198
3635.34399	1.68592
3633.41543	1.72965
3631.48687	1.77094
3629.55830	1.81374
3627.62974	1.86905
3625.70117	1.91851
3623.77261	1.95104
3621.84404	1.98385
3619.91548	2.02371
3617.98691	2.07136
3616.05835	2.11581
3614.12979	2.15319
3612.20122	2.19289
3610.27266	2.23272
3608.34409	2.27236
3606.41553	2.31340
3604.48696	2.35125
3602.55840	2.38599
3600.62983	2.42410
3598.70127	2.46568
3596.77271	2.50666
3594.84414	2.54855
3592.91558	2.59129
3590.98701	2.63006
3589.05845	2.66573
3587.12988	2.71075
3585.20132	2.76209
3583.27275	2.80306
3581.34419	2.83841
3579.41562	2.87785
3577.48706	2.92198
3575.55850	2.96703
3573.62993	3.01145
3571.70137	3.05319
3569.77280	3.09434
3567.84424	3.14087
3565.91567	3.19566
3563.98711	3.24427
3562.05854	3.28301
3560.12998	3.32320
3558.20142	3.36696
3556.27285	3.41226
3554.34429	3.45763
3552.41572	3.50470
3550.48716	3.55205
3548.55859	3.59651
3546.63003	3.64013
3544.70146	3.68753
3542.77290	3.73682
3540.84434	3.78451
3538.91577	3.83183
3536.98721	3.88022
3535.05864	3.92978
3533.13008	3.97618
3531.20151	4.02200
3529.27295	4.07291
3527.34438	4.12618
3525.41582	4.17359
3523.48726	4.21693
3521.55869	4.26523
3519.63013	4.31731
3517.70156	4.36816
3515.77300	4.41328
3513.84443	4.45373
3511.91587	4.49766
3509.98730	4.54921
3508.05874	4.60321
3506.13018	4.65526
3504.20161	4.70673
3502.27305	4.75682
3500.34448	4.80284
3498.41592	4.84691
3496.48735	4.88920
3494.55879	4.93174
3492.63022	4.98658
3490.70166	5.04591
3488.77310	5.09487
3486.84453	5.14220
3484.91597	5.19321
3482.98740	5.24069
3481.05884	5.28407
3479.13027	5.33098
3477.20171	5.38288
3475.27314	5.43014
3473.34458	5.47402
3471.41602	5.52251
3469.48745	5.57099
3467.55889	5.62255
3465.63032	5.68288
3463.70176	5.74072
3461.77319	5.78912
3459.84463	5.84002
3457.91606	5.89563
3455.98750	5.94604
3454.05894	5.99270
3452.13037	6.03674
3450.20181	6.08450
3448.27324	6.14458
3446.34468	6.20356
3444.41611	6.24943
3442.48755	6.28714
3440.55898	6.32092
3438.63042	6.37167
3436.70186	6.43670
3434.77329	6.48526
3432.84473	6.53371
3430.91616	6.60210
3428.98760	6.66426
3427.05903	6.70239
3425.13047	6.72931
3423.20190	6.75306
3421.27334	6.78820
3419.34478	6.84941
3417.41621	6.93129
3415.48765	7.00874
3413.55908	7.06877
3411.63052	7.10922
3409.70195	7.11620
3407.77339	7.11277
3405.84482	7.13497
3403.91626	7.19625
3401.98770	7.25407
3400.05913	7.28622
3398.13057	7.32668
3396.20200	7.38376
3394.27344	7.44710
3392.34487	7.49106
3390.41631	7.52191
3388.48774	7.54809
3386.55918	7.58687
3384.63062	7.64482
3382.70205	7.68395
3380.77349	7.69203
3378.84492	7.70391
3376.91636	7.72251
3374.98779	7.72774
3373.05923	7.78678
3371.13066	7.89601
3369.20210	7.95498
3367.27354	7.91474
3365.34497	7.84951
3363.41641	7.83670
3361.48784	7.84514
3359.55928	7.86217
3357.63071	7.89331
3355.70215	7.93715
3353.77358	7.99394
3351.84502	8.02752
3349.91646	8.01723
3347.98789	8.03901
3346.05933	8.09561
3344.13076	8.13299
3342.20220	8.16731
3340.27363	8.19340
3338.34507	8.23868
3336.41650	8.28205
3334.48794	8.26399
3332.55937	8.19298
3330.63081	8.14470
3328.70225	8.17959
3326.77368	8.21779
3324.84512	8.15433
3322.91655	8.08028
3320.98799	8.12203
3319.05942	8.22624
3317.13086	8.28541
3315.20229	8.27275
3313.27373	8.23020
3311.34517	8.16138
3309.41660	8.09514
3307.48804	8.13487
3305.55947	8.28085
3303.63091	8.38646
3301.70234	8.32128
3299.77378	8.17422
3297.84521	8.12024
3295.91665	8.25032
3293.98809	8.43275
3292.05952	8.42190
3290.13096	8.27319
3288.20239	8.22225
3286.27383	8.34601
3284.34526	8.47539
3282.41670	8.46557
3280.48813	8.40188
3278.55957	8.38911
3276.63101	8.41330
3274.70244	8.41920
3272.77388	8.41320
3270.84531	8.40192
3268.91675	8.34278
3266.98818	8.26318
3265.05962	8.26938
3263.13105	8.30728
3261.20249	8.32151
3259.27393	8.39459
3257.34536	8.41447
3255.41680	8.27684
3253.48823	8.20018
3251.55967	8.25846
3249.63110	8.30481
3247.70254	8.30790
3245.77397	8.34609
3243.84541	8.42900
3241.91685	8.46477
3239.98828	8.39208
3238.05972	8.32644
3236.13115	8.39525
3234.20259	8.50905
3232.27402	8.50141
3230.34546	8.38403
3228.41689	8.22529
3226.48833	8.13277
3224.55977	8.17649
3222.63120	8.25420
3220.70264	8.22422
3218.77407	8.12028
3216.84551	8.03276
3214.91694	8.00187
3212.98838	8.01849
3211.05981	8.01285
3209.13125	7.97392
3207.20269	7.97155
3205.27412	7.98733
3203.34556	7.96428
3201.41699	7.93440
3199.48843	7.90020
3197.55986	7.81930
3195.63130	7.71329
3193.70273	7.66313
3191.77417	7.67056
3189.84561	7.66470
3187.91704	7.64545
3185.98848	7.61298
3184.05991	7.53066
3182.13135	7.42549
3180.20278	7.36996
3178.27422	7.38521
3176.34565	7.40539
3174.41709	7.34787
3172.48853	7.24240
3170.55996	7.16848
3168.63140	7.11948
3166.70283	7.05290
3164.77427	6.96769
3162.84570	6.88120
3160.91714	6.80518
3158.98857	6.75688
3157.06001	6.71714
3155.13145	6.63852
3153.20288	6.53898
3151.27432	6.46115
3149.34575	6.40510
3147.41719	6.35672
3145.48862	6.29806
3143.56006	6.21693
3141.63149	6.13446
3139.70293	6.06686
3137.77437	6.00008
3135.84580	5.92585
3133.91724	5.85618
3131.98867	5.79858
3130.06011	5.74200
3128.13154	5.67411
3126.20298	5.59718
3124.27441	5.51808
3122.34585	5.43613
3120.41729	5.35539
3118.48872	5.28433
3116.56016	5.21893
3114.63159	5.15172
3112.70303	5.08448
3110.77446	5.01800
3108.84590	4.94821
3106.91733	4.87587
3104.98877	4.80513
3103.06021	4.73722
3101.13164	4.66910
3099.20308	4.60057
3097.27451	4.53485
3095.34595	4.46924
3093.41738	4.40078
3091.48882	4.33225
3089.56025	4.26515
3087.63169	4.19968
3085.70312	4.13680
3083.77456	4.07587
3081.84600	4.01516
3079.91743	3.95308
3077.98887	3.89090
3076.06030	3.83044
3074.13174	3.76980
3072.20317	3.70895
3070.27461	3.65080
3068.34604	3.59511
3066.41748	3.53908
3064.48892	3.48261
3062.56035	3.42714
3060.63179	3.37204
3058.70322	3.31702
3056.77466	3.26318
3054.84609	3.21011
3052.91753	3.15699
3050.98896	3.10439
3049.06040	3.05288
3047.13184	3.00242
3045.20327	2.95281
3043.27471	2.90370
3041.34614	2.85449
3039.41758	2.80578
3037.48901	2.75875
3035.56045	2.71239
3033.63188	2.66545
3031.70332	2.61917
3029.77476	2.57423
3027.84619	2.53003
3025.91763	2.48670
3023.98906	2.44386
3022.06050	2.40133
3020.13193	2.35957
3018.20337	2.31847
3016.27480	2.27816
3014.34624	2.23889
3012.41768	2.19986
3010.48911	2.16083
3008.56055	2.12277
3006.63198	2.08593
3004.70342	2.04975
3002.77485	2.01387
3000.84629	1.97844
2998.91772	1.94383
2996.98916	1.91010
2995.06060	1.87720
2993.13203	1.84513
2991.20347	1.81358
2989.27490	1.78228
2987.34634	1.75165
2985.41777	1.72188
2983.48921	1.69262
2981.56064	1.66381
2979.63208	1.63557
2977.70352	1.60796
2975.77495	1.58063
2973.84639	1.55310
2971.91782	1.52573
2969.98926	1.49919
2968.06069	1.47378
2966.13213	1.44912
2964.20356	1.42428
2962.27500	1.39908
2960.34644	1.37409
2958.41787	1.34946
2956.48931	1.32481
2954.56074	1.30032
2952.63218	1.27661
2950.70361	1.25346
2948.77505	1.23057
2946.84648	1.20797
2944.91792	1.18569
2942.98936	1.16400
2941.06079	1.14301
2939.13223	1.12232
2937.20366	1.10170
2935.27510	1.08144
2933.34653	1.06162
2931.41797	1.04200
2929.48940	1.02221
2927.56084	1.00263
2925.63228	0.98446
2923.70371	0.96755
2921.77515	0.95037
2919.84658	0.93281
2917.91802	0.91557
2915.98945	0.89850
2914.06089	0.88201
2912.13232	0.86651
2910.20376	0.85143
2908.27520	0.83654
2906.34663	0.82210
2904.41807	0.80785
2902.48950	0.79375
2900.56094	0.78010
2898.63237	0.76672
2896.70381	0.75364
2894.77524	0.74099
2892.84668	0.72858
2890.91812	0.71649
2888.98955	0.70464
2887.06099	0.69301
2885.13242	0.68205
2883.20386	0.67177
2881.27529	0.66166
2879.34673	0.65159
2877.41816	0.64167
2875.48960	0.63151
2873.56104	0.62092
2871.63247	0.61023
2869.70391	0.59960
2867.77534	0.58884
2865.84678	0.57798
2863.91821	0.56716
2861.98965	0.55642
2860.06108	0.54595
2858.13252	0.53590
2856.20396	0.52637
2854.27539	0.51743
2852.34683	0.50889
2850.41826	0.50045
2848.48970	0.49204
2846.56113	0.48401
2844.63257	0.47664
2842.70400	0.46987
2840.77544	0.46344
2838.84687	0.45729
2836.91831	0.45140
2834.98975	0.44563
2833.06118	0.43993
2831.13262	0.43412
2829.20405	0.42800
2827.27549	0.42180
2825.34692	0.41581
2823.41836	0.41004
2821.48979	0.40425
2819.56123	0.39834
2817.63267	0.39246
2815.70410	0.38682
2813.77554	0.38137
2811.84697	0.37596
2809.91841	0.37064
2807.98984	0.36546
2806.06128	0.36031
2804.13271	0.35512
2802.20415	0.34992
2800.27559	0.34482
2798.34702	0.33993
2796.41846	0.33527
2794.48989	0.33070
2792.56133	0.32609
2790.63276	0.32155
2788.70420	0.31704
2786.77563	0.31256
2784.84707	0.30826
2782.91851	0.30413
2780.98994	0.30016
2779.06138	0.29639
2777.13281	0.29266
2775.20425	0.28877
2773.27568	0.28476
2771.34712	0.28094
2769.41855	0.27742
2767.48999	0.27406
2765.56143	0.27074
2763.63286	0.26741
2761.70430	0.26410
2759.77573	0.26073
2757.84717	0.25733
2755.91860	0.25421
2753.99004	0.25137
2752.06147	0.24851
2750.13291	0.24554
2748.20435	0.24255
2746.27578	0.23960
2744.34722	0.23688
2742.41865	0.23444
2740.49009	0.23204
2738.56152	0.22952
2736.63296	0.22692
2734.70439	0.22435
2732.77583	0.22189
2730.84727	0.21950
2728.91870	0.21720
2726.99014	0.21499
2725.06157	0.21286
2723.13301	0.21079
2721.20444	0.20870
2719.27588	0.20657
2717.34731	0.20449
2715.41875	0.20251
2713.49019	0.20061
2711.56162	0.19875
2709.63306	0.19697
2707.70449	0.19533
2705.77593	0.19383
2703.84736	0.19245
2701.91880	0.19102
2699.99023	0.18945
2698.06167	0.18785
2696.13311	0.18639
2694.20454	0.18503
2692.27598	0.18358
2690.34741	0.18212
2688.41885	0.18090
2686.49028	0.17977
2684.56172	0.17858
2682.63315	0.17737
2680.70459	0.17616
2678.77603	0.17505
2676.84746	0.17407
2674.91890	0.17307
2672.99033	0.17200
2671.06177	0.17092
2669.13320	0.16991
2667.20464	0.16900
2665.27607	0.16809
2663.34751	0.16716
2661.41895	0.16626
2659.49038	0.16544
2657.56182	0.16472
2655.63325	0.16406
2653.70469	0.16350
2651.77612	0.16300
2649.84756	0.16242
2647.91899	0.16167
2645.99043	0.16086
2644.06187	0.16029
2642.13330	0.15983
2640.20474	0.15926
2638.27617	0.15870
2636.34761	0.15823
2634.41904	0.15789
2632.49048	0.15756
2630.56191	0.15719
2628.63335	0.15686
2626.70479	0.15653
2624.77622	0.15615
2622.84766	0.15583
2620.91909	0.15560
2618.99053	0.15541
2617.06196	0.15521
2615.13340	0.15497
2613.20483	0.15474
2611.27627	0.15461
2609.34771	0.15453
2607.41914	0.15449
2605.49058	0.15443
2603.56201	0.15427
2601.63345	0.15414
2599.70488	0.15420
2597.77632	0.15431
2595.84775	0.15440
2593.91919	0.15448
2591.99062	0.15449
2590.06206	0.15451
2588.13350	0.15469
2586.20493	0.15506
2584.27637	0.15545
2582.34780	0.15571
2580.41924	0.15588
2578.49067	0.15605
2576.56211	0.15638
2574.63354	0.15684
2572.70498	0.15719
2570.77642	0.15748
2568.84785	0.15791
2566.91929	0.15841
2564.99072	0.15889
2563.06216	0.15930
2561.13359	0.15969
2559.20503	0.16014
2557.27646	0.16062
2555.34790	0.16108
2553.41934	0.16151
2551.49077	0.16198
2549.56221	0.16262
2547.63364	0.16337
2545.70508	0.16403
2543.77651	0.16455
2541.84795	0.16508
2539.91938	0.16563
2537.99082	0.16619
2536.06226	0.16684
2534.13369	0.16753
2532.20513	0.16817
2530.27656	0.16881
2528.34800	0.16955
2526.41943	0.17035
2524.49087	0.17115
2522.56230	0.17193
2520.63374	0.17266
2518.70518	0.17343
2516.77661	0.17426
2514.84805	0.17507
2512.91948	0.17586
2510.99092	0.17664
2509.06235	0.17737
2507.13379	0.17815
2505.20522	0.17897
2503.27666	0.17974
2501.34810	0.18056
2499.41953	0.18147
2497.49097	0.18238
2495.56240	0.18323
2493.63384	0.18402
2491.70527	0.18482
2489.77671	0.18573
2487.84814	0.18669
2485.91958	0.18765
2483.99102	0.18857
2482.06245	0.18949
2480.13389	0.19039
2478.20532	0.19125
2476.27676	0.19213
2474.34819	0.19304
2472.41963	0.19389
2470.49106	0.19474
2468.56250	0.19571
2466.63394	0.19681
2464.70537	0.19792
2462.77681	0.19886
2460.84824	0.19962
2458.91968	0.20042
2456.99111	0.20135
2455.06255	0.20231
2453.13398	0.20327
2451.20542	0.20428
2449.27686	0.20539
2447.34829	0.20653
2445.41973	0.20760
2443.49116	0.20859
2441.56260	0.20958
2439.63403	0.21058
2437.70547	0.21156
2435.77690	0.21256
2433.84834	0.21359
2431.91978	0.21457
2429.99121	0.21557
2428.06265	0.21665
2426.13408	0.21778
2424.20552	0.21893
2422.27695	0.22003
2420.34839	0.22116
2418.41982	0.22237
2416.49126	0.22358
2414.56270	0.22470
2412.63413	0.22578
2410.70557	0.22696
2408.77700	0.22822
2406.84844	0.22945
2404.91987	0.23067
2402.99131	0.23195
2401.06274	0.23318
2399.13418	0.23435
2397.20562	0.23551
2395.27705	0.23664
2393.34849	0.23782
2391.41992	0.23909
2389.49136	0.24042
2387.56279	0.24190
2385.63423	0.24372
2383.70566	0.24592
2381.77710	0.24837
2379.84854	0.25094
2377.91997	0.25363
2375.99141	0.25667
2374.06284	0.26022
2372.13428	0.26416
2370.20571	0.26840
2368.27715	0.27267
2366.34858	0.27633
2364.42002	0.27903
2362.49146	0.28199
2360.56289	0.28588
2358.63433	0.28847
2356.70576	0.28845
2354.77720	0.28735
2352.84863	0.28630
2350.92007	0.28486
2348.99150	0.28374
2347.06294	0.28430
2345.13437	0.28743
2343.20581	0.29198
2341.27725	0.29507
2339.34868	0.29648
2337.42012	0.29726
2335.49155	0.29790
2333.56299	0.29887
2331.63442	0.30061
2329.70586	0.30250
2327.77729	0.30372
2325.84873	0.30450
2323.92017	0.30527
2321.99160	0.30595
2320.06304	0.30653
2318.13447	0.30707
2316.20591	0.30758
2314.27734	0.30834
2312.34878	0.30957
2310.42021	0.31099
2308.49165	0.31221
2306.56309	0.31322
2304.63452	0.31432
2302.70596	0.31565
2300.77739	0.31707
2298.84883	0.31840
2296.92026	0.31967
2294.99170	0.32118
2293.06313	0.32291
2291.13457	0.32455
2289.20601	0.32615
2287.27744	0.32784
2285.34888	0.32948
2283.42031	0.33113
2281.49175	0.33303
2279.56318	0.33521
2277.63462	0.33740
2275.70605	0.33943
2273.77749	0.34145
2271.84893	0.34355
2269.92036	0.34567
2267.99180	0.34787
2266.06323	0.35010
2264.13467	0.35219
2262.20610	0.35421
2260.27754	0.35629
2258.34897	0.35845
2256.42041	0.36061
2254.49185	0.36271
2252.56328	0.36476
2250.63472	0.36682
2248.70615	0.36903
2246.77759	0.37137
2244.84902	0.37364
2242.92046	0.37575
2240.99189	0.37787
2239.06333	0.38013
2237.13477	0.38246
2235.20620	0.38468
2233.27764	0.38683
2231.34907	0.38904
2229.42051	0.39134
2227.49194	0.39367
2225.56338	0.39599
2223.63481	0.39829
2221.70625	0.40049
2219.77769	0.40264
2217.84912	0.40486
2215.92056	0.40708
2213.99199	0.40920
2212.06343	0.41128
2210.13486	0.41342
2208.20630	0.41561
2206.27773	0.41776
2204.34917	0.41985
2202.42061	0.42191
2200.49204	0.42396
2198.56348	0.42599
2196.63491	0.42796
2194.70635	0.42996
2192.77778	0.43200
2190.84922	0.43393
2188.92065	0.43578
2186.99209	0.43767
2185.06353	0.43949
2183.13496	0.44118
2181.20640	0.44287
2179.27783	0.44454
2177.34927	0.44618
2175.42070	0.44779
2173.49214	0.44932
2171.56357	0.45073
2169.63501	0.45210
2167.70645	0.45345
2165.77788	0.45480
2163.84932	0.45614
2161.92075	0.45732
2159.99219	0.45832
2158.06362	0.45935
2156.13506	0.46043
2154.20649	0.46129
2152.27793	0.46193
2150.34937	0.46259
2148.42080	0.46332
2146.49224	0.46406
2144.56367	0.46471
2142.63511	0.46525
2140.70654	0.46568
2138.77798	0.46590
2136.84941	0.46593
2134.92085	0.46595
2132.99229	0.46599
2131.06372	0.46592
2129.13516	0.46578
2127.20659	0.46559
2125.27803	0.46525
2123.34946	0.46469
2121.42090	0.46417
2119.49233	0.46380
2117.56377	0.46342
2115.63521	0.46289
2113.70664	0.46216
2111.77808	0.46120
2109.84951	0.46016
2107.92095	0.45916
2105.99238	0.45807
2104.06382	0.45679
2102.13525	0.45540
2100.20669	0.45410
2098.27812	0.45278
2096.34956	0.45133
2094.42100	0.44985
2092.49243	0.44829
2090.56387	0.44658
2088.63530	0.44479
2086.70674	0.44298
2084.77817	0.44115
2082.84961	0.43928
2080.92104	0.43729
2078.99248	0.43515
2077.06392	0.43292
2075.13535	0.43071
2073.20679	0.42854
2071.27822	0.42633
2069.34966	0.42407
2067.42109	0.42178
2065.49253	0.41944
2063.56396	0.41698
2061.63540	0.41451
2059.70684	0.41203
2057.77827	0.40947
2055.84971	0.40692
2053.92114	0.40440
2051.99258	0.40184
2050.06401	0.39916
2048.13545	0.39646
2046.20688	0.39378
2044.27832	0.39112
2042.34976	0.38845
2040.42119	0.38573
2038.49263	0.38294
2036.56406	0.38014
2034.63550	0.37735
2032.70693	0.37452
2030.77837	0.37169
2028.84980	0.36884
2026.92124	0.36600
2024.99268	0.36327
2023.06411	0.36047
2021.13555	0.35758
2019.20698	0.35489
2017.27842	0.35238
2015.34985	0.34960
2013.42129	0.34661
2011.49272	0.34370
2009.56416	0.34093
2007.63560	0.33819
2005.70703	0.33547
2003.77847	0.33278
2001.84990	0.33008
1999.92134	0.32740
1997.99277	0.32474
1996.06421	0.32212
1994.13564	0.31978
1992.20708	0.31763
1990.27852	0.31514
1988.34995	0.31234
1986.42139	0.30956
1984.49282	0.30690
1982.56426	0.30439
1980.63569	0.30205
1978.70713	0.29978
1976.77856	0.29743
1974.85000	0.29509
1972.92144	0.29283
1970.99287	0.29075
1969.06431	0.28896
1967.13574	0.28722
1965.20718	0.28506
1963.27861	0.28269
1961.35005	0.28058
1959.42148	0.27870
1957.49292	0.27685
1955.56436	0.27497
1953.63579	0.27309
1951.70723	0.27123
1949.77866	0.26949
1947.85010	0.26795
1945.92153	0.26671
1943.99297	0.26573
1942.06440	0.26444
1940.13584	0.26244
1938.20728	0.26046
1936.27871	0.25894
1934.35015	0.25762
1932.42158	0.25637
1930.49302	0.25512
1928.56445	0.25391
1926.63589	0.25285
1924.70732	0.25212
1922.77876	0.25151
1920.85020	0.25058
1918.92163	0.24967
1916.99307	0.24877
1915.06450	0.24754
1913.13594	0.24640
1911.20737	0.24575
1909.27881	0.24527
1907.35024	0.24453
1905.42168	0.24356
1903.49312	0.24274
1901.56455	0.24209
1899.63599	0.24154
1897.70742	0.24121
1895.77886	0.24108
1893.85029	0.24081
1891.92173	0.24046
1889.99316	0.24042
1888.06460	0.24014
1886.13604	0.23942
1884.20747	0.23886
1882.27891	0.23858
1880.35034	0.23845
1878.42178	0.23839
1876.49321	0.23836
1874.56465	0.23831
1872.63608	0.23850
1870.70752	0.23937
1868.77896	0.24077
1866.85039	0.24113
1864.92183	0.24027
1862.99326	0.23960
1861.06470	0.23958
1859.13613	0.23989
1857.20757	0.24020
1855.27900	0.24061
1853.35044	0.24117
1851.42187	0.24187
1849.49331	0.24273
1847.56475	0.24381
1845.63618	0.24520
1843.70762	0.24653
1841.77905	0.24678
1839.85049	0.24655
1837.92192	0.24705
1835.99336	0.24799
1834.06479	0.24897
1832.13623	0.25036
1830.20767	0.25248
1828.27910	0.25411
1826.35054	0.25483
1824.42197	0.25581
1822.49341	0.25670
1820.56484	0.25756
1818.63628	0.25887
1816.70771	0.26049
1814.77915	0.26210
1812.85059	0.26408
1810.92202	0.26652
1808.99346	0.26864
1807.06489	0.27027
1805.13633	0.27201
1803.20776	0.27448
1801.27920	0.27751
1799.35063	0.28053
1797.42207	0.28300
1795.49351	0.28549
1793.56494	0.28878
1791.63638	0.29277
1789.70781	0.29562
1787.77925	0.29745
1785.85068	0.30035
1783.92212	0.30422
1781.99355	0.30845
1780.06499	0.31281
1778.13643	0.31711
1776.20786	0.32138
1774.27930	0.32650
1772.35073	0.33325
1770.42217	0.33949
1768.49360	0.34403
1766.56504	0.34849
1764.63647	0.35357
1762.70791	0.35983
1760.77935	0.36764
1758.85078	0.37464
1756.92222	0.38164
1754.99365	0.38929
1753.06509	0.39658
1751.13652	0.40584
1749.20796	0.41723
1747.27939	0.42757
1745.35083	0.43622
1743.42227	0.44548
1741.49370	0.45600
1739.56514	0.46839
1737.63657	0.48075
1735.70801	0.49220
1733.77944	0.50965
1731.85088	0.52928
1729.92231	0.54399
1727.99375	0.55897
1726.06519	0.57568
1724.13662	0.59446
1722.20806	0.61491
1720.27949	0.63440
1718.35093	0.65778
1716.42236	0.69052
1714.49380	0.72025
1712.56523	0.74434
1710.63667	0.76822
1708.70811	0.79443
1706.77954	0.82460
1704.85098	0.86016
1702.92241	0.89188
1700.99385	0.92387
1699.06528	0.97075
1697.13672	1.01317
1695.20815	1.05590
1693.27959	1.09793
1691.35103	1.13293
1689.42246	1.17391
1687.49390	1.21706
1685.56533	1.25927
1683.63677	1.32274
1681.70820	1.38672
1679.77964	1.42787
1677.85107	1.46771
1675.92251	1.51409
1673.99395	1.57121
1672.06538	1.62259
1670.13682	1.67322
1668.20825	1.73698
1666.27969	1.78891
1664.35112	1.83470
1662.42256	1.89236
1660.49399	1.95569
1658.56543	2.00414
1656.63687	2.04355
1654.70830	2.08140
1652.77974	2.14117
1650.85117	2.19735
1648.92261	2.21751
1646.99404	2.24208
1645.06548	2.26989
1643.13691	2.28923
1641.20835	2.29971
1639.27979	2.30871
1637.35122	2.31630
1635.42266	2.31966
1633.49409	2.31317
1631.56553	2.29853
1629.63696	2.28046
1627.70840	2.25129
1625.77983	2.21797
1623.85127	2.17765
1621.92271	2.12814
1619.99414	2.08275
1618.06558	2.03896
1616.13701	1.97775
1614.20845	1.91363
1612.27988	1.86380
1610.35132	1.81242
1608.42275	1.75693
1606.49419	1.70226
1604.56562	1.65193
1602.63706	1.60339
1600.70850	1.55610
1598.77993	1.51237
1596.85137	1.47103
1594.92280	1.43104
1592.99424	1.39248
1591.06567	1.35693
1589.13711	1.32352
1587.20854	1.29252
1585.27998	1.26403
1583.35142	1.23740
1581.42285	1.21301
1579.49429	1.19243
1577.56572	1.17451
1575.63716	1.15257
1573.70859	1.13209
1571.78003	1.11858
1569.85146	1.10551
1567.92290	1.09085
1565.99434	1.07913
1564.06577	1.07004
1562.13721	1.06338
1560.20864	1.06017
1558.28008	1.05740
1556.35151	1.05252
1554.42295	1.04822
1552.49438	1.04439
1550.56582	1.04005
1548.63726	1.03418
1546.70869	1.02724
1544.78013	1.01927
1542.85156	1.00947
1540.92300	0.99493
1538.99443	0.97040
1537.06587	0.95044
1535.13730	0.93746
1533.20874	0.92177
1531.28018	0.90434
1529.35161	0.89107
1527.42305	0.87927
1525.49448	0.86769
1523.56592	0.85812
1521.63735	0.84907
1519.70879	0.83886
1517.78022	0.82953
1515.85166	0.81914
1513.92310	0.80818
1511.99453	0.79890
1510.06597	0.79137
1508.13740	0.78503
1506.20884	0.77375
1504.28027	0.76112
1502.35171	0.75368
1500.42314	0.74825
1498.49458	0.74326
1496.56602	0.73718
1494.63745	0.73017
1492.70889	0.72483
1490.78032	0.72132
1488.85176	0.71720
1486.92319	0.71154
1484.99463	0.70639
1483.06606	0.70285
1481.13750	0.70041
1479.20894	0.69859
1477.28037	0.69772
1475.35181	0.69779
1473.42324	0.69785
1471.49468	0.69591
1469.56611	0.69232
1467.63755	0.68927
1465.70898	0.68719
1463.78042	0.68540
1461.85186	0.68393
1459.92329	0.68370
1457.99473	0.68456
1456.06616	0.68348
1454.13760	0.67951
1452.20903	0.67597
1450.28047	0.67328
1448.35190	0.67086
1446.42334	0.66800
1444.49478	0.66506
1442.56621	0.66248
1440.63765	0.66005
1438.70908	0.65796
1436.78052	0.65578
1434.85195	0.65275
1432.92339	0.64996
1430.99482	0.64828
1429.06626	0.64728
1427.13770	0.64655
1425.20913	0.64648
1423.28057	0.64697
1421.35200	0.64747
1419.42344	0.64810
1417.49487	0.64776
1415.56631	0.64572
1413.63774	0.64384
1411.70918	0.64292
1409.78062	0.64278
1407.85205	0.64322
1405.92349	0.64412
1403.99492	0.64469
1402.06636	0.64427
1400.13779	0.64349
1398.20923	0.64240
1396.28066	0.64044
1394.35210	0.63723
1392.42354	0.63318
1390.49497	0.62958
1388.56641	0.62656
1386.63784	0.62305
1384.70928	0.61877
1382.78071	0.61456
1380.85215	0.61089
1378.92358	0.60794
1376.99502	0.60578
1375.06646	0.60437
1373.13789	0.60309
1371.20933	0.60183
1369.28076	0.60101
1367.35220	0.60016
1365.42363	0.59897
1363.49507	0.59786
1361.56650	0.59653
1359.63794	0.59470
1357.70937	0.59312
1355.78081	0.59199
1353.85225	0.59101
1351.92368	0.59006
1349.99512	0.58930
1348.06655	0.58857
1346.13799	0.58761
1344.20942	0.58669
1342.28086	0.58626
1340.35229	0.58621
1338.42373	0.58569
1336.49517	0.58453
1334.56660	0.58356
1332.63804	0.58310
1330.70947	0.58286
1328.78091	0.58269
1326.85234	0.58271
1324.92378	0.58295
1322.99521	0.58335
1321.06665	0.58386
1319.13809	0.58436
1317.20952	0.58447
1315.28096	0.58415
1313.35239	0.58367
1311.42383	0.58302
1309.49526	0.58218
1307.56670	0.58138
1305.63813	0.58060
1303.70957	0.57977
1301.78101	0.57892
1299.85244	0.57796
1297.92388	0.57682
1295.99531	0.57552
1294.06675	0.57426
1292.13818	0.57320
1290.20962	0.57217
1288.28105	0.57110
1286.35249	0.57012
1284.42393	0.56918
1282.49536	0.56811
1280.56680	0.56696
1278.63823	0.56581
1276.70967	0.56471
1274.78110	0.56374
1272.85254	0.56303
1270.92397	0.56241
1268.99541	0.56171
1267.06685	0.56107
1265.13828	0.56048
1263.20972	0.55982
1261.28115	0.55908
1259.35259	0.55833
1257.42402	0.55768
1255.49546	0.55740
1253.56689	0.55754
1251.63833	0.55786
1249.70977	0.55810
1247.78120	0.55800
1245.85264	0.55773
1243.92407	0.55743
1241.99551	0.55683
1240.06694	0.55575
1238.13838	0.55436
1236.20981	0.55290
1234.28125	0.55138
1232.35269	0.54973
1230.42412	0.54805
1228.49556	0.54646
1226.56699	0.54491
1224.63843	0.54345
1222.70986	0.54208
1220.78130	0.54074
1218.85273	0.53952
1216.92417	0.53848
1214.99561	0.53759
1213.06704	0.53673
1211.13848	0.53583
1209.20991	0.53502
1207.28135	0.53435
1205.35278	0.53365
1203.42422	0.53285
1201.49565	0.53207
1199.56709	0.53130
1197.63853	0.53055
1195.70996	0.52992
1193.78140	0.52946
1191.85283	0.52915
1189.92427	0.52888
1187.99570	0.52854
1186.06714	0.52825
1184.13857	0.52826
1182.21001	0.52856
1180.28145	0.52909
1178.35288	0.52993
1176.42432	0.53101
1174.49575	0.53207
1172.56719	0.53281
1170.63862	0.53311
1168.71006	0.53309
1166.78149	0.53289
1164.85293	0.53272
1162.92437	0.53261
1160.99580	0.53239
1159.06724	0.53184
1157.13867	0.53096
1155.21011	0.52993
1153.28154	0.52872
1151.35298	0.52708
1149.42441	0.52502
1147.49585	0.52273
1145.56729	0.52032
1143.63872	0.51792
1141.71016	0.51560
1139.78159	0.51339
1137.85303	0.51145
1135.92446	0.50994
1133.99590	0.50885
1132.06733	0.50814
1130.13877	0.50762
1128.21021	0.50691
1126.28164	0.50588
1124.35308	0.50476
1122.42451	0.50376
1120.49595	0.50288
1118.56738	0.50225
1116.63882	0.50202
1114.71025	0.50196
1112.78169	0.50198
1110.85312	0.50231
1108.92456	0.50294
1106.99600	0.50373
1105.06743	0.50461
1103.13887	0.50571
1101.21030	0.50734
1099.28174	0.50957
1097.35317	0.51220
1095.42461	0.51510
1093.49604	0.51840
1091.56748	0.52240
1089.63892	0.52731
1087.71035	0.53315
1085.78179	0.53975
1083.85322	0.54662
1081.92466	0.55313
1079.99609	0.55847
1078.06753	0.56154
1076.13896	0.56183
1074.21040	0.55957
1072.28184	0.55524
1070.35327	0.54931
1068.42471	0.54240
1066.49614	0.53549
1064.56758	0.52922
1062.63901	0.52355
1060.71045	0.51848
1058.78188	0.51400
1056.85332	0.50985
1054.92476	0.50603
1052.99619	0.50272
1051.06763	0.49999
1049.13906	0.49787
1047.21050	0.49624
1045.28193	0.49490
1043.35337	0.49372
1041.42480	0.49269
1039.49624	0.49180
1037.56768	0.49101
1035.63911	0.49034
1033.71055	0.48983
1031.78198	0.48943
1029.85342	0.48911
1027.92485	0.48887
1025.99629	0.48868
1024.06772	0.48857
1022.13916	0.48872
1020.21060	0.48924
1018.28203	0.49004
1016.35347	0.49088
1014.42490	0.49172
1012.49634	0.49270
1010.56777	0.49385
1008.63921	0.49513
1006.71064	0.49676
1004.78208	0.49870
1002.85352	0.50073
1000.92495	0.50308
998.99639	0.50619
997.06782	0.50994
995.13926	0.51390
993.21069	0.51784
991.28213	0.52153
989.35356	0.52442
987.42500	0.52603
985.49644	0.52667
983.56787	0.52707
981.63931	0.52786
979.71074	0.52930
977.78218	0.53124
975.85361	0.53353
973.92505	0.53616
971.99648	0.53928
970.06792	0.54283
968.13936	0.54657
966.21079	0.55054
964.28223	0.55501
962.35366	0.55991
960.42510	0.56508
958.49653	0.57054
956.56797	0.57623
954.63940	0.58210
952.71084	0.58835
950.78228	0.59498
948.85371	0.60163
946.92515	0.60795
944.99658	0.61382
943.06802	0.61983
941.13945	0.62628
939.21089	0.63216
937.28232	0.63729
935.35376	0.64290
933.42520	0.64921
931.49663	0.65537
929.56807	0.66132
927.63950	0.66745
925.71094	0.67338
923.78237	0.67902
921.85381	0.68514
919.92524	0.69192
917.99668	0.69896
916.06812	0.70592
914.13955	0.71299
912.21099	0.72083
910.28242	0.72903
908.35386	0.73701
906.42529	0.74592
904.49673	0.75614
902.56816	0.76591
900.63960	0.77428
898.71104	0.78269
896.78247	0.79202
894.85391	0.80177
892.92534	0.81193
890.99678	0.82233
889.06821	0.83273
887.13965	0.84346
885.21108	0.85493
883.28252	0.86701
881.35396	0.87871
879.42539	0.88989
877.49683	0.90128
875.56826	0.91326
873.63970	0.92548
871.71113	0.93755
869.78257	0.94942
867.85400	0.96115
865.92544	0.97300
863.99687	0.98442
862.06831	0.99538
860.13975	1.00696
858.21118	1.01872
856.28262	1.02920
854.35405	1.04011
852.42549	1.05293
850.49692	1.06508
848.56836	1.07534
846.63979	1.08549
844.71123	1.09737
842.78267	1.11071
840.85410	1.12404
838.92554	1.13670
836.99697	1.14732
835.06841	1.15454
833.13984	1.16081
831.21128	1.17027
829.28271	1.18212
827.35415	1.19250
825.42559	1.20327
823.49702	1.21589
821.56846	1.22641
819.63989	1.23787
817.71133	1.25427
815.78276	1.26984
813.85420	1.27899
811.92563	1.28717
809.99707	1.30169
808.06851	1.31825
806.13994	1.32826
804.21138	1.32611
802.28281	1.32029
800.35425	1.32653
798.42568	1.34673
796.49712	1.37192
794.56855	1.38488
792.63999	1.37059
790.71143	1.34858
788.78286	1.34287
786.85430	1.34682
784.92573	1.37137
782.99717	1.41455
781.06860	1.42319
779.14004	1.39320
777.21147	1.36609
775.28291	1.36144
773.35435	1.37712
771.42578	1.39860
769.49722	1.40832
767.56865	1.47516
765.64009	1.71884
763.71152	1.93230
761.78296	1.66791
759.85439	1.53163
757.92583	1.51167
755.99727	1.44735
754.06870	1.31836
752.14014	1.20823
750.21157	1.15860
748.28301	1.15095
746.35444	1.14024
744.42588	1.13704
742.49731	1.18815
740.56875	1.19784
738.64019	1.05209
736.71162	0.92140
734.78306	0.85826
732.85449	0.84076
730.92593	0.87895
728.99736	1.00413
727.06880	1.12759
725.14023	0.83709
723.21167	0.58124
721.28311	0.49305
719.35454	0.44364
717.42598	0.39838
715.49741	0.32997
713.56885	0.10179
711.64028	-0.13747
709.71172	-0.11346
707.78315	0.13550
705.85459	0.27697
703.92603	0.39823
701.99746	0.37622
700.06890	0.24893
698.14033	0.19006
696.21177	0.20741
694.28320	0.27120
692.35464	0.34097
690.42607	0.40681
688.49751	0.46062
686.56895	0.40435
684.64038	0.35001
682.71182	0.45420
680.78325	0.67641
678.85469	0.65986
676.92612	0.53848
674.99756	0.69979
673.06899	1.08749
671.14043	0.69192
669.21187	0.56429
667.28330	0.57408
665.35474	0.46170
663.42617	0.40423
661.49761	0.52274
659.56904	0.79128
657.64048	0.55567
655.71191	0.34259
653.78335	0.32634
651.85479	0.33823
649.92622	0.28815
647.99766	0.27085
646.06909	0.30340
644.14053	0.32404
642.21196	0.34198
640.28340	0.38564
638.35483	0.47229
636.42627	0.58049
634.49771	0.50734
632.56914	0.43301
630.64058	0.49457
628.71201	0.60312
626.78345	0.50199
624.85488	0.34253
622.92632	0.30430
620.99775	0.33433
619.06919	0.28588
617.14062	0.18355
615.21206	0.13381
613.28350	0.18393
611.35493	0.31670
609.42637	0.49106
607.49780	0.61332
605.56924	0.58031
603.64067	0.45452
601.71211	0.39737
599.78354	0.36969
597.85498	0.30817
595.92642	0.30373
593.99785	0.37749
592.06929	0.44096
590.14072	0.39780
588.21216	0.31339
586.28359	0.23988
584.35503	0.18912
582.42646	0.17714
580.49790	0.21232
578.56934	0.28727
576.64077	0.39285
574.71221	0.47796
572.78364	0.43250
570.85508	0.31748
568.92651	0.21699
566.99795	0.16937
565.06938	0.18590
563.14082	0.22689
561.21226	0.26833
559.28369	0.27040
557.35513	0.22644
555.42656	0.20148
553.49800	0.23844
551.56943	0.27488
549.64087	0.26457
547.71230	0.26347
545.78374	0.27540
543.85518	0.27405
541.92661	0.27527
539.99805	0.27847
538.06948	0.27996
536.14092	0.30429
534.21235	0.35820
532.28379	0.37416
530.35522	0.32281
528.42666	0.29383
526.49810	0.30163
524.56953	0.32463
522.64097	0.36515
520.71240	0.34475
518.78384	0.25912
516.85527	0.19940
514.92671	0.22162
512.99814	0.32870
511.06958	0.40270
509.14102	0.31532
507.21245	0.25092
505.28389	0.27178
503.35532	0.33364
501.42676	0.31654
499.49819	0.25650
