3997.91411	0.06011
3995.98555	0.06091
3994.05698	0.06198
3992.12842	0.06269
3990.19985	0.06292
3988.27129	0.06266
3986.34272	0.06230
3984.41416	0.06256
3982.48560	0.06327
3980.55703	0.06360
3978.62847	0.06357
3976.69990	0.06402
3974.77134	0.06482
3972.84277	0.06527
3970.91421	0.06535
3968.98564	0.06524
3967.05708	0.06486
3965.12852	0.06448
3963.19995	0.06473
3961.27139	0.06545
3959.34282	0.06579
3957.41426	0.06596
3955.48569	0.06634
3953.55713	0.06641
3951.62856	0.06685
3949.70000	0.06869
3947.77144	0.07040
3945.84287	0.07026
3943.91431	0.06992
3941.98574	0.07025
3940.05718	0.06934
3938.12861	0.06757
3936.20005	0.06685
3934.27148	0.06772
3932.34292	0.06975
3930.41436	0.07111
3928.48579	0.07030
3926.55723	0.06939
3924.62866	0.07033
3922.70010	0.07100
3920.77153	0.07013
3918.84297	0.07017
3916.91440	0.07120
3914.98584	0.07021
3913.05728	0.06732
3911.12871	0.06529
3909.20015	0.06507
3907.27158	0.06706
3905.34302	0.07204
3903.41445	0.07837
3901.48589	0.08172
3899.55732	0.08081
3897.62876	0.07673
3895.70020	0.07202
3893.77163	0.07086
3891.84307	0.07360
3889.91450	0.07495
3887.98594	0.07341
3886.05737	0.07427
3884.12881	0.07713
3882.20024	0.07829
3880.27168	0.07836
3878.34312	0.07585
3876.41455	0.07276
3874.48599	0.07418
3872.55742	0.07869
3870.62886	0.08269
3868.70029	0.08383
3866.77173	0.08155
3864.84316	0.08095
3862.91460	0.08187
3860.98604	0.07945
3859.05747	0.07648
3857.12891	0.07752
3855.20034	0.08336
3853.27178	0.09289
3851.34321	0.09499
3849.41465	0.08618
3847.48608	0.07894
3845.55752	0.07682
3843.62896	0.07963
3841.70039	0.08548
3839.77183	0.09165
3837.84326	0.09563
3835.91470	0.09465
3833.98613	0.09080
3832.05757	0.08762
3830.12900	0.08558
3828.20044	0.08517
3826.27187	0.08659
3824.34331	0.08865
3822.41475	0.09287
3820.48618	0.10002
3818.55762	0.10230
3816.62905	0.09985
3814.70049	0.09658
3812.77192	0.09153
3810.84336	0.08835
3808.91479	0.08982
3806.98623	0.09509
3805.05767	0.09995
3803.12910	0.10349
3801.20054	0.10822
3799.27197	0.10940
3797.34341	0.10663
3795.41484	0.10435
3793.48628	0.10168
3791.55771	0.09951
3789.62915	0.09922
3787.70059	0.10063
3785.77202	0.10368
3783.84346	0.10669
3781.91489	0.10834
3779.98633	0.11082
3778.05776	0.11342
3776.12920	0.11297
3774.20063	0.11212
3772.27207	0.11414
3770.34351	0.11904
3768.41494	0.12396
3766.48638	0.12627
3764.55781	0.12702
3762.62925	0.12750
3760.70068	0.13033
3758.77212	0.13643
3756.84355	0.14138
3754.91499	0.14392
3752.98643	0.14925
3751.05786	0.15977
3749.12930	0.16812
3747.20073	0.16840
3745.27217	0.16880
3743.34360	0.17219
3741.41504	0.17421
3739.48647	0.17638
3737.55791	0.18322
3735.62935	0.19574
3733.70078	0.20634
3731.77222	0.20731
3729.84365	0.20554
3727.91509	0.20739
3725.98652	0.21367
3724.05796	0.22133
3722.12939	0.22708
3720.20083	0.23089
3718.27227	0.23344
3716.34370	0.23626
3714.41514	0.24251
3712.48657	0.25660
3710.55801	0.27765
3708.62944	0.29260
3706.70088	0.29927
3704.77231	0.30741
3702.84375	0.32081
3700.91519	0.33837
3698.98662	0.35549
3697.05806	0.37166
3695.12949	0.39024
3693.20093	0.41145
3691.27236	0.43686
3689.34380	0.46886
3687.41523	0.50093
3685.48667	0.52481
3683.55811	0.54683
3681.62954	0.57424
3679.70098	0.60849
3677.77241	0.64702
3675.84385	0.69271
3673.91528	0.74726
3671.98672	0.78796
3670.05815	0.82605
3668.12959	0.87681
3666.20103	0.91946
3664.27246	0.95587
3662.34390	0.99835
3660.41533	1.04627
3658.48677	1.09450
3656.55820	1.14671
3654.62964	1.20432
3652.70107	1.25307
3650.77251	1.29954
3648.84395	1.36431
3646.91538	1.43246
3644.98682	1.47397
3643.05825	1.50656
3641.12969	1.54466
3639.20112	1.58914
3637.27256	1.63492
3635.34399	1.68063
3633.41543	1.72759
3631.48687	1.77288
3629.55830	1.82007
3627.62974	1.87740
3625.70117	1.92416
3623.77261	1.95419
3621.84404	1.98584
3619.91548	2.02523
3617.98691	2.07286
3616.05835	2.11661
3614.12979	2.15197
3612.20122	2.18831
3610.27266	2.22615
3608.34409	2.26790
3606.41553	2.31154
3604.48696	2.34849
3602.55840	2.38228
3600.62983	2.42205
3598.70127	2.46531
3596.77271	2.50665
3594.84414	2.54915
3592.91558	2.59150
3590.98701	2.62862
3589.05845	2.66491
3587.12988	2.71127
3585.20132	2.75879
3583.27275	2.79473
3581.34419	2.82822
3579.41562	2.86660
3577.48706	2.90902
3575.55850	2.95282
3573.62993	2.99767
3571.70137	3.04048
3569.77280	3.08195
3567.84424	3.12967
3565.91567	3.18706
3563.98711	3.23566
3562.05854	3.27145
3560.12998	3.30890
3558.20142	3.35175
3556.27285	3.39668
3554.34429	3.44162
3552.41572	3.49089
3550.48716	3.54222
3548.55859	3.58896
3546.63003	3.63412
3544.70146	3.68274
3542.77290	3.73032
3540.84434	3.77324
3538.91577	3.81609
3536.98721	3.86224
3535.05864	3.91287
3533.13008	3.96359
3531.20151	4.01230
3529.27295	4.06202
3527.34438	4.11276
3525.41582	4.15962
3523.48726	4.20262
3521.55869	4.24800
3519.63013	4.29778
3517.70156	4.34857
3515.77300	4.39594
3513.84443	4.44187
3511.91587	4.49057
3509.98730	4.54379
3508.05874	4.59488
3506.13018	4.63898
3504.20161	4.68603
3502.27305	4.73898
3500.34448	4.79010
3498.41592	4.83829
3496.48735	4.88567
3494.55879	4.93134
3492.63022	4.97715
3490.70166	5.02583
3488.77310	5.07693
3486.84453	5.12698
3484.91597	5.17537
3482.98740	5.22408
3481.05884	5.27122
3479.13027	5.31778
3477.20171	5.36738
3475.27314	5.41621
3473.34458	5.46033
3471.41602	5.50454
3469.48745	5.55472
3467.55889	5.60833
3465.63032	5.66403
3463.70176	5.72711
3461.77319	5.78542
3459.84463	5.82568
3457.91606	5.86345
3455.98750	5.91758
3454.05894	5.97491
3452.13037	6.01765
3450.20181	6.06219
3448.27324	6.11796
3446.34468	6.17172
3444.41611	6.22484
3442.48755	6.28730
3440.55898	6.33804
3438.63042	6.36722
3436.70186	6.39791
3434.77329	6.44045
3432.84473	6.48482
3430.91616	6.53153
3428.98760	6.60073
3427.05903	6.68043
3425.13047	6.75136
3423.20190	6.80670
3421.27334	6.83827
3419.34478	6.86033
3417.41621	6.90263
3415.48765	6.96027
3413.55908	7.00975
3411.63052	7.05848
3409.70195	7.10362
3407.77339	7.15704
3405.84482	7.22772
3403.91626	7.28339
3401.98770	7.29686
3400.05913	7.30766
3398.13057	7.37147
3396.20200	7.45809
3394.27344	7.49376
3392.34487	7.46265
3390.41631	7.45555
3388.48774	7.51904
3386.55918	7.60026
3384.63062	7.64749
3382.70205	7.66007
3380.77349	7.64876
3378.84492	7.64319
3376.91636	7.71325
3374.98779	7.81293
3373.05923	7.82452
3371.13066	7.80197
3369.20210	7.85258
3367.27354	7.91794
3365.34497	7.94263
3363.41641	7.96573
3361.48784	7.99735
3359.55928	8.03040
3357.63071	8.02823
3355.70215	7.99597
3353.77358	8.00987
3351.84502	8.08710
3349.91646	8.11987
3347.98789	8.09225
3346.05933	8.07444
3344.13076	8.09138
3342.20220	8.15333
3340.27363	8.19587
3338.34507	8.21136
3336.41650	8.26398
3334.48794	8.28641
3332.55937	8.17034
3330.63081	8.05283
3328.70225	8.03192
3326.77368	8.04472
3324.84512	8.06752
3322.91655	8.11219
3320.98799	8.19151
3319.05942	8.28287
3317.13086	8.36005
3315.20229	8.39737
3313.27373	8.37859
3311.34517	8.32269
3309.41660	8.26414
3307.48804	8.23324
3305.55947	8.25438
3303.63091	8.29913
3301.70234	8.25470
3299.77378	8.12464
3297.84521	8.02753
3295.91665	8.07259
3293.98809	8.24772
3292.05952	8.41117
3290.13096	8.44761
3288.20239	8.37522
3286.27383	8.30771
3284.34526	8.29972
3282.41670	8.31498
3280.48813	8.30254
3278.55957	8.26666
3276.63101	8.19105
3274.70244	8.11457
3272.77388	8.09812
3270.84531	8.10431
3268.91675	8.12176
3266.98818	8.19561
3265.05962	8.29255
3263.13105	8.30295
3261.20249	8.27528
3259.27393	8.24453
3257.34536	8.17628
3255.41680	8.19260
3253.48823	8.30827
3251.55967	8.32881
3249.63110	8.22394
3247.70254	8.13992
3245.77397	8.14916
3243.84541	8.22285
3241.91685	8.28117
3239.98828	8.30114
3238.05972	8.25408
3236.13115	8.16736
3234.20259	8.17112
3232.27402	8.28631
3230.34546	8.35720
3228.41689	8.31356
3226.48833	8.29348
3224.55977	8.29775
3222.63120	8.24600
3220.70264	8.18202
3218.77407	8.14799
3216.84551	8.11900
3214.91694	8.08432
3212.98838	8.01455
3211.05981	7.89967
3209.13125	7.83405
3207.20269	7.84518
3205.27412	7.86896
3203.34556	7.86713
3201.41699	7.86270
3199.48843	7.88846
3197.55986	7.92386
3195.63130	7.91209
3193.70273	7.81477
3191.77417	7.67343
3189.84561	7.57060
3187.91704	7.54194
3185.98848	7.54754
3184.05991	7.54620
3182.13135	7.55146
3180.20278	7.54029
3178.27422	7.47702
3176.34565	7.38749
3174.41709	7.28443
3172.48853	7.17870
3170.55996	7.09505
3168.63140	7.02904
3166.70283	6.97842
3164.77427	6.94917
3162.84570	6.93331
3160.91714	6.91929
3158.98857	6.87016
3157.06001	6.76952
3155.13145	6.66514
3153.20288	6.57029
3151.27432	6.49037
3149.34575	6.44725
3147.41719	6.40387
3145.48862	6.33010
3143.56006	6.25059
3141.63149	6.17830
3139.70293	6.10231
3137.77437	6.01650
3135.84580	5.93517
3133.91724	5.87203
3131.98867	5.81352
3130.06011	5.74035
3128.13154	5.66035
3126.20298	5.59202
3124.27441	5.52718
3122.34585	5.44550
3120.41729	5.36073
3118.48872	5.29384
3116.56016	5.23554
3114.63159	5.17017
3112.70303	5.09643
3110.77446	5.02272
3108.84590	4.95441
3106.91733	4.88547
3104.98877	4.81430
3103.06021	4.74524
3101.13164	4.67470
3099.20308	4.60320
3097.27451	4.53566
3095.34595	4.47123
3093.41738	4.40704
3091.48882	4.34093
3089.56025	4.27346
3087.63169	4.20801
3085.70312	4.14546
3083.77456	4.08228
3081.84600	4.01751
3079.91743	3.95347
3077.98887	3.89160
3076.06030	3.83154
3074.13174	3.77128
3072.20317	3.70960
3070.27461	3.64871
3068.34604	3.59015
3066.41748	3.53162
3064.48892	3.47242
3062.56035	3.41403
3060.63179	3.35784
3058.70322	3.30394
3056.77466	3.25051
3054.84609	3.19668
3052.91753	3.14285
3050.98896	3.08984
3049.06040	3.03831
3047.13184	2.98832
3045.20327	2.93873
3043.27471	2.88854
3041.34614	2.83859
3039.41758	2.78954
3037.48901	2.74124
3035.56045	2.69384
3033.63188	2.64764
3031.70332	2.60208
3029.77476	2.55690
3027.84619	2.51276
3025.91763	2.46930
3023.98906	2.42626
3022.06050	2.38387
3020.13193	2.34193
3018.20337	2.30052
3016.27480	2.25985
3014.34624	2.22000
3012.41768	2.18080
3010.48911	2.14180
3008.56055	2.10302
3006.63198	2.06521
3004.70342	2.02875
3002.77485	1.99327
3000.84629	1.95837
2998.91772	1.92407
2996.98916	1.89057
2995.06060	1.85751
2993.13203	1.82431
2991.20347	1.79154
2989.27490	1.75998
2987.34634	1.72910
2985.41777	1.69815
2983.48921	1.66744
2981.56064	1.63740
2979.63208	1.60803
2977.70352	1.57945
2975.77495	1.55151
2973.84639	1.52380
2971.91782	1.49615
2969.98926	1.46881
2968.06069	1.44222
2966.13213	1.41624
2964.20356	1.39035
2962.27500	1.36486
2960.34644	1.34006
2958.41787	1.31566
2956.48931	1.29153
2954.56074	1.26776
2952.63218	1.24426
2950.70361	1.22113
2948.77505	1.19864
2946.84648	1.17627
2944.91792	1.15355
2942.98936	1.13135
2941.06079	1.11043
2939.13223	1.08999
2937.20366	1.06915
2935.27510	1.04833
2933.34653	1.02829
2931.41797	1.00896
2929.48940	0.98993
2927.56084	0.97126
2925.63228	0.95307
2923.70371	0.93527
2921.77515	0.91801
2919.84658	0.90141
2917.91802	0.88505
2915.98945	0.86861
2914.06089	0.85250
2912.13232	0.83717
2910.20376	0.82264
2908.27520	0.80865
2906.34663	0.79497
2904.41807	0.78143
2902.48950	0.76801
2900.56094	0.75471
2898.63237	0.74172
2896.70381	0.72924
2894.77524	0.71705
2892.84668	0.70491
2890.91812	0.69306
2888.98955	0.68146
2887.06099	0.66990
2885.13242	0.65866
2883.20386	0.64785
2881.27529	0.63723
2879.34673	0.62682
2877.41816	0.61668
2875.48960	0.60648
2873.56104	0.59596
2871.63247	0.58549
2869.70391	0.57523
2867.77534	0.56491
2865.84678	0.55446
2863.91821	0.54404
2861.98965	0.53384
2860.06108	0.52403
2858.13252	0.51465
2856.20396	0.50552
2854.27539	0.49634
2852.34683	0.48717
2850.41826	0.47854
2848.48970	0.47065
2846.56113	0.46320
2844.63257	0.45620
2842.70400	0.45002
2840.77544	0.44436
2838.84687	0.43852
2836.91831	0.43247
2834.98975	0.42663
2833.06118	0.42112
2831.13262	0.41557
2829.20405	0.40968
2827.27549	0.40366
2825.34692	0.39779
2823.41836	0.39205
2821.48979	0.38630
2819.56123	0.38043
2817.63267	0.37454
2815.70410	0.36890
2813.77554	0.36350
2811.84697	0.35822
2809.91841	0.35311
2807.98984	0.34804
2806.06128	0.34285
2804.13271	0.33768
2802.20415	0.33267
2800.27559	0.32787
2798.34702	0.32326
2796.41846	0.31874
2794.48989	0.31428
2792.56133	0.30982
2790.63276	0.30525
2788.70420	0.30071
2786.77563	0.29649
2784.84707	0.29243
2782.91851	0.28832
2780.98994	0.28431
2779.06138	0.28052
2777.13281	0.27683
2775.20425	0.27316
2773.27568	0.26948
2771.34712	0.26595
2769.41855	0.26255
2767.48999	0.25915
2765.56143	0.25576
2763.63286	0.25244
2761.70430	0.24920
2759.77573	0.24598
2757.84717	0.24281
2755.91860	0.23993
2753.99004	0.23724
2752.06147	0.23438
2750.13291	0.23130
2748.20435	0.22832
2746.27578	0.22560
2744.34722	0.22306
2742.41865	0.22052
2740.49009	0.21799
2738.56152	0.21556
2736.63296	0.21323
2734.70439	0.21091
2732.77583	0.20854
2730.84727	0.20614
2728.91870	0.20384
2726.99014	0.20171
2725.06157	0.19971
2723.13301	0.19771
2721.20444	0.19559
2719.27588	0.19351
2717.34731	0.19161
2715.41875	0.18981
2713.49019	0.18810
2711.56162	0.18646
2709.63306	0.18479
2707.70449	0.18316
2705.77593	0.18152
2703.84736	0.17987
2701.91880	0.17831
2699.99023	0.17681
2698.06167	0.17537
2696.13311	0.17408
2694.20454	0.17280
2692.27598	0.17137
2690.34741	0.16995
2688.41885	0.16872
2686.49028	0.16754
2684.56172	0.16635
2682.63315	0.16522
2680.70459	0.16403
2678.77603	0.16280
2676.84746	0.16176
2674.91890	0.16085
2672.99033	0.15982
2671.06177	0.15868
2669.13320	0.15761
2667.20464	0.15670
2665.27607	0.15593
2663.34751	0.15516
2661.41895	0.15429
2659.49038	0.15349
2657.56182	0.15286
2655.63325	0.15215
2653.70469	0.15143
2651.77612	0.15092
2649.84756	0.15047
2647.91899	0.14980
2645.99043	0.14896
2644.06187	0.14826
2642.13330	0.14775
2640.20474	0.14727
2638.27617	0.14681
2636.34761	0.14639
2634.41904	0.14607
2632.49048	0.14579
2630.56191	0.14545
2628.63335	0.14511
2626.70479	0.14487
2624.77622	0.14460
2622.84766	0.14424
2620.91909	0.14400
2618.99053	0.14396
2617.06196	0.14391
2615.13340	0.14374
2613.20483	0.14359
2611.27627	0.14349
2609.34771	0.14339
2607.41914	0.14331
2605.49058	0.14326
2603.56201	0.14323
2601.63345	0.14323
2599.70488	0.14325
2597.77632	0.14332
2595.84775	0.14342
2593.91919	0.14354
2591.99062	0.14370
2590.06206	0.14391
2588.13350	0.14420
2586.20493	0.14455
2584.27637	0.14485
2582.34780	0.14509
2580.41924	0.14531
2578.49067	0.14559
2576.56211	0.14594
2574.63354	0.14637
2572.70498	0.14684
2570.77642	0.14725
2568.84785	0.14770
2566.91929	0.14822
2564.99072	0.14870
2563.06216	0.14915
2561.13359	0.14959
2559.20503	0.14998
2557.27646	0.15039
2555.34790	0.15087
2553.41934	0.15140
2551.49077	0.15201
2549.56221	0.15268
2547.63364	0.15340
2545.70508	0.15409
2543.77651	0.15472
2541.84795	0.15533
2539.91938	0.15594
2537.99082	0.15659
2536.06226	0.15730
2534.13369	0.15799
2532.20513	0.15868
2530.27656	0.15943
2528.34800	0.16018
2526.41943	0.16090
2524.49087	0.16166
2522.56230	0.16250
2520.63374	0.16341
2518.70518	0.16421
2516.77661	0.16486
2514.84805	0.16561
2512.91948	0.16653
2510.99092	0.16743
2509.06235	0.16827
2507.13379	0.16911
2505.20522	0.16992
2503.27666	0.17069
2501.34810	0.17160
2499.41953	0.17262
2497.49097	0.17353
2495.56240	0.17428
2493.63384	0.17500
2491.70527	0.17578
2489.77671	0.17671
2487.84814	0.17772
2485.91958	0.17875
2483.99102	0.17979
2482.06245	0.18078
2480.13389	0.18170
2478.20532	0.18257
2476.27676	0.18348
2474.34819	0.18444
2472.41963	0.18534
2470.49106	0.18623
2468.56250	0.18724
2466.63394	0.18838
2464.70537	0.18954
2462.77681	0.19060
2460.84824	0.19147
2458.91968	0.19226
2456.99111	0.19315
2455.06255	0.19417
2453.13398	0.19525
2451.20542	0.19631
2449.27686	0.19731
2447.34829	0.19830
2445.41973	0.19931
2443.49116	0.20028
2441.56260	0.20133
2439.63403	0.20253
2437.70547	0.20367
2435.77690	0.20473
2433.84834	0.20581
2431.91978	0.20687
2429.99121	0.20799
2428.06265	0.20914
2426.13408	0.21018
2424.20552	0.21120
2422.27695	0.21228
2420.34839	0.21348
2418.41982	0.21473
2416.49126	0.21589
2414.56270	0.21705
2412.63413	0.21831
2410.70557	0.21963
2408.77700	0.22088
2406.84844	0.22201
2404.91987	0.22320
2402.99131	0.22448
2401.06274	0.22571
2399.13418	0.22689
2397.20562	0.22809
2395.27705	0.22934
2393.34849	0.23071
2391.41992	0.23216
2389.49136	0.23378
2387.56279	0.23618
2385.63423	0.24013
2383.70566	0.24622
2381.77710	0.25464
2379.84854	0.26502
2377.91997	0.27697
2375.99141	0.29074
2374.06284	0.30685
2372.13428	0.32515
2370.20571	0.34480
2368.27715	0.36499
2366.34858	0.38441
2364.42002	0.40091
2362.49146	0.41304
2360.56289	0.42048
2358.63433	0.42186
2356.70576	0.41491
2354.77720	0.40056
2352.84863	0.38180
2350.92007	0.36190
2348.99150	0.34926
2347.06294	0.34965
2345.13437	0.36343
2343.20581	0.38212
2341.27725	0.39237
2339.34868	0.39387
2337.42012	0.39242
2335.49155	0.39064
2333.56299	0.38840
2331.63442	0.38644
2329.70586	0.38495
2327.77729	0.38271
2325.84873	0.37864
2323.92017	0.37321
2321.99160	0.36742
2320.06304	0.36126
2318.13447	0.35469
2316.20591	0.34885
2314.27734	0.34493
2312.34878	0.34287
2310.42021	0.34109
2308.49165	0.33826
2306.56309	0.33468
2304.63452	0.33154
2302.70596	0.32979
2300.77739	0.32910
2298.84883	0.32850
2296.92026	0.32789
2294.99170	0.32758
2293.06313	0.32743
2291.13457	0.32726
2289.20601	0.32714
2287.27744	0.32709
2285.34888	0.32713
2283.42031	0.32776
2281.49175	0.32941
2279.56318	0.33188
2277.63462	0.33457
2275.70605	0.33714
2273.77749	0.33955
2271.84893	0.34177
2269.92036	0.34380
2267.99180	0.34579
2266.06323	0.34772
2264.13467	0.34957
2262.20610	0.35138
2260.27754	0.35322
2258.34897	0.35508
2256.42041	0.35690
2254.49185	0.35871
2252.56328	0.36055
2250.63472	0.36240
2248.70615	0.36431
2246.77759	0.36642
2244.84902	0.36861
2242.92046	0.37067
2240.99189	0.37262
2239.06333	0.37464
2237.13477	0.37680
2235.20620	0.37898
2233.27764	0.38108
2231.34907	0.38323
2229.42051	0.38557
2227.49194	0.38801
2225.56338	0.39046
2223.63481	0.39281
2221.70625	0.39501
2219.77769	0.39709
2217.84912	0.39915
2215.92056	0.40140
2213.99199	0.40375
2212.06343	0.40593
2210.13486	0.40800
2208.20630	0.41015
2206.27773	0.41232
2204.34917	0.41437
2202.42061	0.41644
2200.49204	0.41863
2198.56348	0.42080
2196.63491	0.42284
2194.70635	0.42486
2192.77778	0.42689
2190.84922	0.42883
2188.92065	0.43068
2186.99209	0.43256
2185.06353	0.43443
2183.13496	0.43613
2181.20640	0.43777
2179.27783	0.43945
2177.34927	0.44110
2175.42070	0.44268
2173.49214	0.44421
2171.56357	0.44566
2169.63501	0.44704
2167.70645	0.44846
2165.77788	0.44988
2163.84932	0.45120
2161.92075	0.45232
2159.99219	0.45332
2158.06362	0.45433
2156.13506	0.45542
2154.20649	0.45643
2152.27793	0.45722
2150.34937	0.45782
2148.42080	0.45846
2146.49224	0.45922
2144.56367	0.45985
2142.63511	0.46030
2140.70654	0.46071
2138.77798	0.46102
2136.84941	0.46119
2134.92085	0.46129
2132.99229	0.46129
2131.06372	0.46117
2129.13516	0.46103
2127.20659	0.46085
2125.27803	0.46050
2123.34946	0.46001
2121.42090	0.45959
2119.49233	0.45919
2117.56377	0.45861
2115.63521	0.45784
2113.70664	0.45698
2111.77808	0.45608
2109.84951	0.45511
2107.92095	0.45415
2105.99238	0.45327
2104.06382	0.45227
2102.13525	0.45095
2100.20669	0.44951
2098.27812	0.44809
2096.34956	0.44663
2094.42100	0.44507
2092.49243	0.44346
2090.56387	0.44185
2088.63530	0.44015
2086.70674	0.43834
2084.77817	0.43648
2082.84961	0.43460
2080.92104	0.43257
2078.99248	0.43041
2077.06392	0.42825
2075.13535	0.42615
2073.20679	0.42398
2071.27822	0.42162
2069.34966	0.41932
2067.42109	0.41727
2065.49253	0.41514
2063.56396	0.41256
2061.63540	0.40984
2059.70684	0.40729
2057.77827	0.40474
2055.84971	0.40220
2053.92114	0.39973
2051.99258	0.39720
2050.06401	0.39451
2048.13545	0.39178
2046.20688	0.38912
2044.27832	0.38658
2042.34976	0.38408
2040.42119	0.38142
2038.49263	0.37853
2036.56406	0.37555
2034.63550	0.37261
2032.70693	0.36975
2030.77837	0.36699
2028.84980	0.36432
2026.92124	0.36169
2024.99268	0.35894
2023.06411	0.35606
2021.13555	0.35325
2019.20698	0.35072
2017.27842	0.34828
2015.34985	0.34538
2013.42129	0.34211
2011.49272	0.33906
2009.56416	0.33639
2007.63560	0.33379
2005.70703	0.33104
2003.77847	0.32824
2001.84990	0.32553
1999.92134	0.32291
1997.99277	0.32028
1996.06421	0.31771
1994.13564	0.31553
1992.20708	0.31360
1990.27852	0.31111
1988.34995	0.30811
1986.42139	0.30514
1984.49282	0.30240
1982.56426	0.29989
1980.63569	0.29751
1978.70713	0.29520
1976.77856	0.29289
1974.85000	0.29058
1972.92144	0.28836
1970.99287	0.28633
1969.06431	0.28471
1967.13574	0.28323
1965.20718	0.28107
1963.27861	0.27847
1961.35005	0.27617
1959.42148	0.27418
1957.49292	0.27232
1955.56436	0.27056
1953.63579	0.26874
1951.70723	0.26685
1949.77866	0.26515
1947.85010	0.26379
1945.92153	0.26277
1943.99297	0.26209
1942.06440	0.26107
1940.13584	0.25885
1938.20728	0.25639
1936.27871	0.25464
1934.35015	0.25334
1932.42158	0.25217
1930.49302	0.25097
1928.56445	0.24974
1926.63589	0.24871
1924.70732	0.24833
1922.77876	0.24819
1920.85020	0.24732
1918.92163	0.24630
1916.99307	0.24529
1915.06450	0.24362
1913.13594	0.24220
1911.20737	0.24181
1909.27881	0.24175
1907.35024	0.24104
1905.42168	0.23982
1903.49312	0.23884
1901.56455	0.23815
1899.63599	0.23754
1897.70742	0.23724
1895.77886	0.23733
1893.85029	0.23720
1891.92173	0.23699
1889.99316	0.23734
1888.06460	0.23718
1886.13604	0.23612
1884.20747	0.23531
1882.27891	0.23490
1880.35034	0.23461
1878.42178	0.23442
1876.49321	0.23437
1874.56465	0.23443
1872.63608	0.23492
1870.70752	0.23660
1868.77896	0.23912
1866.85039	0.23951
1864.92183	0.23757
1862.99326	0.23618
1861.06470	0.23604
1859.13613	0.23645
1857.20757	0.23680
1855.27900	0.23713
1853.35044	0.23757
1851.42187	0.23824
1849.49331	0.23930
1847.56475	0.24090
1845.63618	0.24304
1843.70762	0.24476
1841.77905	0.24444
1839.85049	0.24357
1837.92192	0.24396
1835.99336	0.24491
1834.06479	0.24580
1832.13623	0.24761
1830.20767	0.25079
1828.27910	0.25289
1826.35054	0.25325
1824.42197	0.25383
1822.49341	0.25414
1820.56484	0.25446
1818.63628	0.25561
1816.70771	0.25726
1814.77915	0.25896
1812.85059	0.26134
1810.92202	0.26429
1808.99346	0.26640
1807.06489	0.26765
1805.13633	0.26928
1803.20776	0.27221
1801.27920	0.27600
1799.35063	0.27926
1797.42207	0.28144
1795.49351	0.28402
1793.56494	0.28811
1791.63638	0.29264
1789.70781	0.29465
1787.77925	0.29543
1785.85068	0.29806
1783.92212	0.30219
1781.99355	0.30676
1780.06499	0.31137
1778.13643	0.31559
1776.20786	0.31999
1774.27930	0.32599
1772.35073	0.33391
1770.42217	0.34011
1768.49360	0.34355
1766.56504	0.34705
1764.63647	0.35181
1762.70791	0.35854
1760.77935	0.36678
1758.85078	0.37363
1756.92222	0.38051
1754.99365	0.38805
1753.06509	0.39560
1751.13652	0.40611
1749.20796	0.41883
1747.27939	0.42916
1745.35083	0.43705
1743.42227	0.44579
1741.49370	0.45614
1739.56514	0.46846
1737.63657	0.48080
1735.70801	0.49284
1733.77944	0.51131
1731.85088	0.53059
1729.92231	0.54405
1727.99375	0.55801
1726.06519	0.57425
1724.13662	0.59324
1722.20806	0.61409
1720.27949	0.63432
1718.35093	0.65958
1716.42236	0.69435
1714.49380	0.72336
1712.56523	0.74560
1710.63667	0.76849
1708.70811	0.79486
1706.77954	0.82609
1704.85098	0.86253
1702.92241	0.89415
1700.99385	0.92633
1699.06528	0.97390
1697.13672	1.01555
1695.20815	1.05537
1693.27959	1.09366
1691.35103	1.12603
1689.42246	1.16520
1687.49390	1.20717
1685.56533	1.24894
1683.63677	1.31081
1681.70820	1.37025
1679.77964	1.40706
1677.85107	1.44383
1675.92251	1.48827
1673.99395	1.54296
1672.06538	1.59055
1670.13682	1.63674
1668.20825	1.69510
1666.27969	1.74193
1664.35112	1.78266
1662.42256	1.83329
1660.49399	1.88855
1658.56543	1.93178
1656.63687	1.96879
1654.70830	2.00623
1652.77974	2.06338
1650.85117	2.11400
1648.92261	2.13455
1646.99404	2.16364
1645.06548	2.19537
1643.13691	2.21455
1641.20835	2.22498
1639.27979	2.23574
1637.35122	2.24690
1635.42266	2.25360
1633.49409	2.24715
1631.56553	2.23235
1629.63696	2.21694
1627.70840	2.19281
1625.77983	2.16342
1623.85127	2.12600
1621.92271	2.07934
1619.99414	2.03667
1618.06558	1.99579
1616.13701	1.93663
1614.20845	1.87311
1612.27988	1.82422
1610.35132	1.77464
1608.42275	1.72112
1606.49419	1.66765
1604.56562	1.61813
1602.63706	1.57061
1600.70850	1.52369
1598.77993	1.47987
1596.85137	1.43895
1594.92280	1.39959
1592.99424	1.36125
1591.06567	1.32570
1589.13711	1.29228
1587.20854	1.26095
1585.27998	1.23171
1583.35142	1.20420
1581.42285	1.17891
1579.49429	1.15770
1577.56572	1.13977
1575.63716	1.11679
1573.70859	1.09346
1571.78003	1.07810
1569.85146	1.06360
1567.92290	1.04569
1565.99434	1.03032
1564.06577	1.01842
1562.13721	1.00973
1560.20864	1.00514
1558.28008	0.99723
1556.35151	0.98380
1554.42295	0.97314
1552.49438	0.96382
1550.56582	0.95551
1548.63726	0.94689
1546.70869	0.93878
1544.78013	0.93218
1542.85156	0.92584
1540.92300	0.91626
1538.99443	0.89660
1537.06587	0.87864
1535.13730	0.86795
1533.20874	0.85650
1531.28018	0.84301
1529.35161	0.83289
1527.42305	0.82506
1525.49448	0.81744
1523.56592	0.81072
1521.63735	0.80396
1519.70879	0.79505
1517.78022	0.78679
1515.85166	0.77793
1513.92310	0.76830
1511.99453	0.76110
1510.06597	0.75720
1508.13740	0.75583
1506.20884	0.74891
1504.28027	0.73597
1502.35171	0.72784
1500.42314	0.72332
1498.49458	0.72027
1496.56602	0.71586
1494.63745	0.70950
1492.70889	0.70489
1490.78032	0.70323
1488.85176	0.70128
1486.92319	0.69580
1484.99463	0.68969
1483.06606	0.68566
1481.13750	0.68327
1479.20894	0.68143
1477.28037	0.68059
1475.35181	0.68113
1473.42324	0.68179
1471.49468	0.67897
1469.56611	0.67326
1467.63755	0.66924
1465.70898	0.66758
1463.78042	0.66597
1461.85186	0.66403
1459.92329	0.66417
1457.99473	0.66639
1456.06616	0.66501
1454.13760	0.65903
1452.20903	0.65449
1450.28047	0.65181
1448.35190	0.64984
1446.42334	0.64712
1444.49478	0.64396
1442.56621	0.64157
1440.63765	0.64006
1438.70908	0.63944
1436.78052	0.63884
1434.85195	0.63652
1432.92339	0.63393
1430.99482	0.63261
1429.06626	0.63146
1427.13770	0.62995
1425.20913	0.62925
1423.28057	0.62926
1421.35200	0.62938
1419.42344	0.63000
1417.49487	0.62915
1415.56631	0.62592
1413.63774	0.62310
1411.70918	0.62151
1409.78062	0.62051
1407.85205	0.61991
1405.92349	0.61990
1403.99492	0.61942
1402.06636	0.61816
1400.13779	0.61749
1398.20923	0.61721
1396.28066	0.61598
1394.35210	0.61323
1392.42354	0.60945
1390.49497	0.60639
1388.56641	0.60457
1386.63784	0.60257
1384.70928	0.59943
1382.78071	0.59625
1380.85215	0.59389
1378.92358	0.59233
1376.99502	0.59147
1375.06646	0.59114
1373.13789	0.59018
1371.20933	0.58851
1369.28076	0.58740
1367.35220	0.58653
1365.42363	0.58567
1363.49507	0.58544
1361.56650	0.58474
1359.63794	0.58268
1357.70937	0.58066
1355.78081	0.57939
1353.85225	0.57846
1351.92368	0.57760
1349.99512	0.57682
1348.06655	0.57588
1346.13799	0.57473
1344.20942	0.57370
1342.28086	0.57329
1340.35229	0.57346
1338.42373	0.57299
1336.49517	0.57133
1334.56660	0.56969
1332.63804	0.56866
1330.70947	0.56796
1328.78091	0.56738
1326.85234	0.56698
1324.92378	0.56675
1322.99521	0.56668
1321.06665	0.56681
1319.13809	0.56694
1317.20952	0.56661
1315.28096	0.56596
1313.35239	0.56531
1311.42383	0.56445
1309.49526	0.56335
1307.56670	0.56226
1305.63813	0.56125
1303.70957	0.56029
1301.78101	0.55932
1299.85244	0.55830
1297.92388	0.55739
1295.99531	0.55646
1294.06675	0.55527
1292.13818	0.55411
1290.20962	0.55332
1288.28105	0.55272
1286.35249	0.55197
1284.42393	0.55109
1282.49536	0.55031
1280.56680	0.54958
1278.63823	0.54877
1276.70967	0.54800
1274.78110	0.54742
1272.85254	0.54690
1270.92397	0.54620
1268.99541	0.54550
1267.06685	0.54510
1265.13828	0.54480
1263.20972	0.54439
1261.28115	0.54395
1259.35259	0.54352
1257.42402	0.54312
1255.49546	0.54277
1253.56689	0.54240
1251.63833	0.54215
1249.70977	0.54215
1247.78120	0.54218
1245.85264	0.54203
1243.92407	0.54171
1241.99551	0.54106
1240.06694	0.54012
1238.13838	0.53914
1236.20981	0.53824
1234.28125	0.53727
1232.35269	0.53618
1230.42412	0.53514
1228.49556	0.53420
1226.56699	0.53318
1224.63843	0.53204
1222.70986	0.53091
1220.78130	0.52986
1218.85273	0.52888
1216.92417	0.52804
1214.99561	0.52727
1213.06704	0.52645
1211.13848	0.52567
1209.20991	0.52499
1207.28135	0.52437
1205.35278	0.52376
1203.42422	0.52312
1201.49565	0.52253
1199.56709	0.52200
1197.63853	0.52140
1195.70996	0.52070
1193.78140	0.52016
1191.85283	0.51981
1189.92427	0.51941
1187.99570	0.51893
1186.06714	0.51860
1184.13857	0.51855
1182.21001	0.51871
1180.28145	0.51903
1178.35288	0.51962
1176.42432	0.52046
1174.49575	0.52125
1172.56719	0.52181
1170.63862	0.52217
1168.71006	0.52244
1166.78149	0.52270
1164.85293	0.52298
1162.92437	0.52317
1160.99580	0.52331
1159.06724	0.52340
1157.13867	0.52319
1155.21011	0.52246
1153.28154	0.52125
1151.35298	0.51970
1149.42441	0.51786
1147.49585	0.51568
1145.56729	0.51314
1143.63872	0.51058
1141.71016	0.50827
1139.78159	0.50615
1137.85303	0.50426
1135.92446	0.50271
1133.99590	0.50143
1132.06733	0.50041
1130.13877	0.49964
1128.21021	0.49891
1126.28164	0.49811
1124.35308	0.49736
1122.42451	0.49656
1120.49595	0.49561
1118.56738	0.49487
1116.63882	0.49470
1114.71025	0.49500
1112.78169	0.49546
1110.85312	0.49603
1108.92456	0.49668
1106.99600	0.49740
1105.06743	0.49835
1103.13887	0.49966
1101.21030	0.50133
1099.28174	0.50332
1097.35317	0.50549
1095.42461	0.50808
1093.49604	0.51151
1091.56748	0.51580
1089.63892	0.52122
1087.71035	0.52803
1085.78179	0.53575
1083.85322	0.54360
1081.92466	0.55086
1079.99609	0.55661
1078.06753	0.55984
1076.13896	0.56002
1074.21040	0.55722
1072.28184	0.55219
1070.35327	0.54596
1068.42471	0.53908
1066.49614	0.53208
1064.56758	0.52570
1062.63901	0.52009
1060.71045	0.51502
1058.78188	0.51052
1056.85332	0.50666
1054.92476	0.50343
1052.99619	0.50082
1051.06763	0.49864
1049.13906	0.49691
1047.21050	0.49572
1045.28193	0.49485
1043.35337	0.49429
1041.42480	0.49409
1039.49624	0.49404
1037.56768	0.49387
1035.63911	0.49357
1033.71055	0.49316
1031.78198	0.49246
1029.85342	0.49167
1027.92485	0.49116
1025.99629	0.49066
1024.06772	0.48993
1022.13916	0.48948
1020.21060	0.48966
1018.28203	0.49030
1016.35347	0.49112
1014.42490	0.49181
1012.49634	0.49221
1010.56777	0.49254
1008.63921	0.49302
1006.71064	0.49388
1004.78208	0.49535
1002.85352	0.49750
1000.92495	0.50020
998.99639	0.50336
997.06782	0.50719
995.13926	0.51161
993.21069	0.51588
991.28213	0.51924
989.35356	0.52139
987.42500	0.52265
985.49644	0.52353
983.56787	0.52420
981.63931	0.52472
979.71074	0.52564
977.78218	0.52722
975.85361	0.52919
973.92505	0.53173
971.99648	0.53495
970.06792	0.53851
968.13936	0.54240
966.21079	0.54680
964.28223	0.55139
962.35366	0.55607
960.42510	0.56097
958.49653	0.56616
956.56797	0.57174
954.63940	0.57778
952.71084	0.58423
950.78228	0.59082
948.85371	0.59732
946.92515	0.60372
944.99658	0.60991
943.06802	0.61578
941.13945	0.62166
939.21089	0.62771
937.28232	0.63361
935.35376	0.63943
933.42520	0.64556
931.49663	0.65194
929.56807	0.65836
927.63950	0.66442
925.71094	0.66982
923.78237	0.67497
921.85381	0.68051
919.92524	0.68715
917.99668	0.69486
916.06812	0.70236
914.13955	0.70960
912.21099	0.71783
910.28242	0.72687
908.35386	0.73532
906.42529	0.74297
904.49673	0.75124
902.56816	0.76053
900.63960	0.76995
898.71104	0.77948
896.78247	0.78980
894.85391	0.80098
892.92534	0.81199
890.99678	0.82142
889.06821	0.82992
887.13965	0.83945
885.21108	0.85082
883.28252	0.86327
881.35396	0.87502
879.42539	0.88605
877.49683	0.89749
875.56826	0.90924
873.63970	0.92148
871.71113	0.93410
869.78257	0.94584
867.85400	0.95697
865.92544	0.96795
863.99687	0.97820
862.06831	0.98893
860.13975	1.00142
858.21118	1.01413
856.28262	1.02454
854.35405	1.03380
852.42549	1.04471
850.49692	1.05687
848.56836	1.06891
846.63979	1.08101
844.71123	1.09385
842.78267	1.10637
840.85410	1.11892
838.92554	1.13249
836.99697	1.14555
835.06841	1.15819
833.13984	1.17187
831.21128	1.18555
829.28271	1.19536
827.35415	1.20177
825.42559	1.21140
823.49702	1.22366
821.56846	1.23224
819.63989	1.24415
817.71133	1.26679
815.78276	1.28592
813.85420	1.29017
811.92563	1.29025
809.99707	1.29318
808.06851	1.29912
806.13994	1.31413
804.21138	1.33816
802.28281	1.35715
800.35425	1.35550
798.42568	1.35024
796.49712	1.37071
794.56855	1.41806
792.63999	1.45953
790.71143	1.44231
788.78286	1.39828
786.85430	1.37557
784.92573	1.35092
782.99717	1.31762
781.06860	1.32081
779.14004	1.35652
777.21147	1.36881
775.28291	1.35906
773.35435	1.34311
771.42578	1.34882
769.49722	1.37299
767.56865	1.36793
765.64009	1.34840
763.71152	1.30407
761.78296	1.23068
759.85439	1.21184
757.92583	1.28091
755.99727	1.33582
754.06870	1.26774
752.14014	1.15537
750.21157	1.07084
748.28301	1.06304
746.35444	1.09284
744.42588	1.05405
742.49731	0.99147
740.56875	0.96643
738.64019	0.90285
736.71162	0.76175
734.78306	0.67612
732.85449	0.72001
730.92593	0.82185
728.99736	0.69842
727.06880	0.46971
725.14023	0.31911
723.21167	0.21817
721.28311	0.10968
719.35454	0.01358
717.42598	-0.00344
715.49741	0.04039
713.56885	-0.00588
711.64028	-0.16160
709.71172	-0.15903
707.78315	-0.02205
705.85459	0.01322
703.92603	0.06724
701.99746	0.10070
700.06890	0.10455
698.14033	0.12858
696.21177	0.18417
694.28320	0.24065
692.35464	0.23056
690.42607	0.19298
688.49751	0.17705
686.56895	0.19057
684.64038	0.23487
682.71182	0.28894
680.78325	0.34751
678.85469	0.34926
676.92612	0.26544
674.99756	0.21234
673.06899	0.20536
671.14043	0.18723
669.21187	0.16808
667.28330	0.17003
665.35474	0.16619
663.42617	0.15533
661.49761	0.14347
659.56904	0.12618
657.64048	0.14251
655.71191	0.17711
653.78335	0.18436
651.85479	0.18708
649.92622	0.15635
647.99766	0.12565
646.06909	0.14134
644.14053	0.16960
642.21196	0.18015
640.28340	0.14574
638.35483	0.06966
636.42627	0.01986
634.49771	0.08729
632.56914	0.21174
630.64058	0.27771
628.71201	0.29677
626.78345	0.24225
624.85488	0.15021
622.92632	0.11713
620.99775	0.18098
619.06919	0.28015
617.14062	0.35160
615.21206	0.30005
613.28350	0.18905
611.35493	0.15453
609.42637	0.16912
607.49780	0.17914
605.56924	0.16614
603.64067	0.14485
601.71211	0.14203
599.78354	0.14157
597.85498	0.12350
595.92642	0.09873
593.99785	0.11246
592.06929	0.18482
590.14072	0.23130
588.21216	0.22124
586.28359	0.19423
584.35503	0.16970
582.42646	0.15822
580.49790	0.14855
578.56934	0.13104
576.64077	0.13058
574.71221	0.15909
572.78364	0.19184
570.85508	0.20190
568.92651	0.17775
566.99795	0.16715
565.06938	0.19937
563.14082	0.21603
561.21226	0.19737
559.28369	0.17132
557.35513	0.15030
555.42656	0.14195
553.49800	0.16643
551.56943	0.19180
549.64087	0.17926
547.71230	0.14721
545.78374	0.10677
543.85518	0.07354
541.92661	0.08666
539.99805	0.13776
538.06948	0.16602
536.14092	0.14292
534.21235	0.12928
532.28379	0.16425
530.35522	0.20291
528.42666	0.19164
526.49810	0.17161
524.56953	0.16346
522.64097	0.16914
520.71240	0.18355
518.78384	0.18220
516.85527	0.19626
514.92671	0.25570
512.99814	0.26042
511.06958	0.18939
509.14102	0.14661
507.21245	0.16269
505.28389	0.19281
503.35532	0.17717
501.42676	0.15355
499.49819	0.15688
