3997.91411	0.06353
3995.98555	0.06393
3994.05698	0.06454
3992.12842	0.06515
3990.19985	0.06561
3988.27129	0.06559
3986.34272	0.06533
3984.41416	0.06556
3982.48560	0.06614
3980.55703	0.06635
3978.62847	0.06636
3976.69990	0.06701
3974.77134	0.06798
3972.84277	0.06837
3970.91421	0.06835
3968.98564	0.06850
3967.05708	0.06860
3965.12852	0.06854
3963.19995	0.06881
3961.27139	0.06920
3959.34282	0.06913
3957.41426	0.06902
3955.48569	0.06919
3953.55713	0.06923
3951.62856	0.06968
3949.70000	0.07135
3947.77144	0.07292
3945.84287	0.07274
3943.91431	0.07241
3941.98574	0.07279
3940.05718	0.07198
3938.12861	0.07038
3936.20005	0.06985
3934.27148	0.07067
3932.34292	0.07250
3930.41436	0.07390
3928.48579	0.07330
3926.55723	0.07240
3924.62866	0.07307
3922.70010	0.07353
3920.77153	0.07251
3918.84297	0.07226
3916.91440	0.07315
3914.98584	0.07259
3913.05728	0.07043
3911.12871	0.06867
3909.20015	0.06819
3907.27158	0.06966
3905.34302	0.07381
3903.41445	0.07924
3901.48589	0.08203
3899.55732	0.08098
3897.62876	0.07746
3895.70020	0.07373
3893.77163	0.07291
3891.84307	0.07500
3889.91450	0.07591
3887.98594	0.07467
3886.05737	0.07542
3884.12881	0.07788
3882.20024	0.07897
3880.27168	0.07903
3878.34312	0.07685
3876.41455	0.07426
3874.48599	0.07555
3872.55742	0.07933
3870.62886	0.08244
3868.70029	0.08342
3866.77173	0.08199
3864.84316	0.08165
3862.91460	0.08202
3860.98604	0.07984
3859.05747	0.07773
3857.12891	0.07884
3855.20034	0.08367
3853.27178	0.09140
3851.34321	0.09284
3849.41465	0.08528
3847.48608	0.07924
3845.55752	0.07779
3843.62896	0.08058
3841.70039	0.08565
3839.77183	0.09054
3837.84326	0.09339
3835.91470	0.09229
3833.98613	0.08945
3832.05757	0.08781
3830.12900	0.08684
3828.20044	0.08630
3826.27187	0.08716
3824.34331	0.08897
3822.41475	0.09261
3820.48618	0.09843
3818.55762	0.10040
3816.62905	0.09902
3814.70049	0.09702
3812.77192	0.09288
3810.84336	0.09015
3808.91479	0.09156
3806.98623	0.09624
3805.05767	0.10047
3803.12910	0.10338
3801.20054	0.10724
3799.27197	0.10847
3797.34341	0.10664
3795.41484	0.10521
3793.48628	0.10321
3791.55771	0.10145
3789.62915	0.10150
3787.70059	0.10315
3785.77202	0.10598
3783.84346	0.10876
3781.91489	0.11054
3779.98633	0.11284
3778.05776	0.11500
3776.12920	0.11462
3774.20063	0.11403
3772.27207	0.11609
3770.34351	0.12081
3768.41494	0.12540
3766.48638	0.12735
3764.55781	0.12798
3762.62925	0.12881
3760.70068	0.13183
3758.77212	0.13724
3756.84355	0.14118
3754.91499	0.14313
3752.98643	0.14781
3751.05786	0.15712
3749.12930	0.16445
3747.20073	0.16502
3745.27217	0.16600
3743.34360	0.16902
3741.41504	0.16998
3739.48647	0.17080
3737.55791	0.17522
3735.62935	0.18449
3733.70078	0.19350
3731.77222	0.19483
3729.84365	0.19299
3727.91509	0.19419
3725.98652	0.19974
3724.05796	0.20743
3722.12939	0.21464
3720.20083	0.22079
3718.27227	0.22590
3716.34370	0.23128
3714.41514	0.23904
3712.48657	0.25197
3710.55801	0.26945
3708.62944	0.28232
3706.70088	0.28955
3704.77231	0.29818
3702.84375	0.31113
3700.91519	0.32836
3698.98662	0.34589
3697.05806	0.36248
3695.12949	0.38137
3693.20093	0.40285
3691.27236	0.42815
3689.34380	0.46026
3687.41523	0.49360
3685.48667	0.51892
3683.55811	0.54184
3681.62954	0.56969
3679.70098	0.60376
3677.77241	0.64148
3675.84385	0.68596
3673.91528	0.74029
3671.98672	0.78211
3670.05815	0.82053
3668.12959	0.87137
3666.20103	0.91534
3664.27246	0.95313
3662.34390	0.99610
3660.41533	1.04385
3658.48677	1.09182
3656.55820	1.14346
3654.62964	1.20002
3652.70107	1.24772
3650.77251	1.29305
3648.84395	1.35654
3646.91538	1.42480
3644.98682	1.46823
3643.05825	1.50224
3641.12969	1.54029
3639.20112	1.58397
3637.27256	1.62881
3635.34399	1.67314
3633.41543	1.71825
3631.48687	1.76174
3629.55830	1.80675
3627.62974	1.86206
3625.70117	1.90959
3623.77261	1.94179
3621.84404	1.97585
3619.91548	2.01733
3617.98691	2.06582
3616.05835	2.10986
3614.12979	2.14633
3612.20122	2.18510
3610.27266	2.22442
3608.34409	2.26441
3606.41553	2.30587
3604.48696	2.34345
3602.55840	2.37865
3600.62983	2.41841
3598.70127	2.46058
3596.77271	2.50042
3594.84414	2.54190
3592.91558	2.58474
3590.98701	2.62314
3589.05845	2.66064
3587.12988	2.70799
3585.20132	2.75690
3583.27275	2.79552
3581.34419	2.83198
3579.41562	2.87294
3577.48706	2.91737
3575.55850	2.96097
3573.62993	3.00317
3571.70137	3.04427
3569.77280	3.08671
3567.84424	3.13501
3565.91567	3.18998
3563.98711	3.23796
3562.05854	3.27700
3560.12998	3.31696
3558.20142	3.35983
3556.27285	3.40573
3554.34429	3.45344
3552.41572	3.50231
3550.48716	3.55053
3548.55859	3.59615
3546.63003	3.64011
3544.70146	3.68702
3542.77290	3.73557
3540.84434	3.78107
3538.91577	3.82742
3536.98721	3.87671
3535.05864	3.92630
3533.13008	3.97355
3531.20151	4.02102
3529.27295	4.07046
3527.34438	4.11964
3525.41582	4.16484
3523.48726	4.20893
3521.55869	4.25800
3519.63013	4.30857
3517.70156	4.35929
3515.77300	4.41156
3513.84443	4.46275
3511.91587	4.51019
3509.98730	4.55669
3508.05874	4.60554
3506.13018	4.65353
3504.20161	4.69930
3502.27305	4.74686
3500.34448	4.79619
3498.41592	4.84200
3496.48735	4.88508
3494.55879	4.93084
3492.63022	4.98166
3490.70166	5.03421
3488.77310	5.08440
3486.84453	5.13540
3484.91597	5.19058
3482.98740	5.24273
3481.05884	5.28777
3479.13027	5.33336
3477.20171	5.38385
3475.27314	5.43466
3473.34458	5.48620
3471.41602	5.53737
3469.48745	5.58024
3467.55889	5.62182
3465.63032	5.67347
3463.70176	5.72804
3461.77319	5.77496
3459.84463	5.82534
3457.91606	5.88307
3455.98750	5.93258
3454.05894	5.97508
3452.13037	6.02331
3450.20181	6.07257
3448.27324	6.11549
3446.34468	6.16541
3444.41611	6.22593
3442.48755	6.28709
3440.55898	6.33664
3438.63042	6.37146
3436.70186	6.41021
3434.77329	6.46788
3432.84473	6.52955
3430.91616	6.57614
3428.98760	6.61978
3427.05903	6.65995
3425.13047	6.69869
3423.20190	6.74868
3421.27334	6.79755
3419.34478	6.83127
3417.41621	6.86761
3415.48765	6.92744
3413.55908	7.00165
3411.63052	7.06164
3409.70195	7.10031
3407.77339	7.14897
3405.84482	7.20490
3403.91626	7.25243
3401.98770	7.26045
3400.05913	7.25351
3398.13057	7.31064
3396.20200	7.38736
3394.27344	7.42565
3392.34487	7.46002
3390.41631	7.50312
3388.48774	7.53066
3386.55918	7.55606
3384.63062	7.59775
3382.70205	7.65749
3380.77349	7.69674
3378.84492	7.69944
3376.91636	7.72343
3374.98779	7.78276
3373.05923	7.85497
3371.13066	7.86524
3369.20210	7.81819
3367.27354	7.81983
3365.34497	7.89406
3363.41641	7.96522
3361.48784	7.97954
3359.55928	7.96044
3357.63071	7.93448
3355.70215	7.94768
3353.77358	7.99758
3351.84502	8.06689
3349.91646	8.12012
3347.98789	8.12851
3346.05933	8.13796
3344.13076	8.13172
3342.20220	8.09021
3340.27363	8.07760
3338.34507	8.09884
3336.41650	8.08741
3334.48794	8.06729
3332.55937	8.07035
3330.63081	8.07642
3328.70225	8.09165
3326.77368	8.14421
3324.84512	8.19740
3322.91655	8.24521
3320.98799	8.33513
3319.05942	8.38044
3317.13086	8.31503
3315.20229	8.18462
3313.27373	8.10795
3311.34517	8.12858
3309.41660	8.16361
3307.48804	8.16186
3305.55947	8.15036
3303.63091	8.15138
3301.70234	8.15645
3299.77378	8.21440
3297.84521	8.28595
3295.91665	8.26123
3293.98809	8.17022
3292.05952	8.14427
3290.13096	8.23925
3288.20239	8.33263
3286.27383	8.30961
3284.34526	8.27332
3282.41670	8.34817
3280.48813	8.47135
3278.55957	8.55559
3276.63101	8.56343
3274.70244	8.47599
3272.77388	8.36568
3270.84531	8.31411
3268.91675	8.32310
3266.98818	8.31516
3265.05962	8.28518
3263.13105	8.27796
3261.20249	8.28334
3259.27393	8.29591
3257.34536	8.33686
3255.41680	8.34017
3253.48823	8.28226
3251.55967	8.23435
3249.63110	8.21038
3247.70254	8.21943
3245.77397	8.23088
3243.84541	8.22932
3241.91685	8.22199
3239.98828	8.22274
3238.05972	8.27502
3236.13115	8.28278
3234.20259	8.20295
3232.27402	8.17626
3230.34546	8.22213
3228.41689	8.28384
3226.48833	8.30561
3224.55977	8.24712
3222.63120	8.20891
3220.70264	8.21755
3218.77407	8.20807
3216.84551	8.19421
3214.91694	8.16293
3212.98838	8.08415
3211.05981	8.00045
3209.13125	7.96206
3207.20269	7.97325
3205.27412	7.98390
3203.34556	7.96863
3201.41699	7.95963
3199.48843	7.94559
3197.55986	7.89763
3195.63130	7.82036
3193.70273	7.74633
3191.77417	7.70123
3189.84561	7.66422
3187.91704	7.62120
3185.98848	7.59177
3184.05991	7.55028
3182.13135	7.45640
3180.20278	7.36953
3178.27422	7.33134
3176.34565	7.28930
3174.41709	7.22469
3172.48853	7.18740
3170.55996	7.16586
3168.63140	7.10305
3166.70283	7.02318
3164.77427	6.96604
3162.84570	6.91573
3160.91714	6.84958
3158.98857	6.77362
3157.06001	6.70113
3155.13145	6.63151
3153.20288	6.56465
3151.27432	6.50598
3149.34575	6.44211
3147.41719	6.35997
3145.48862	6.27750
3143.56006	6.20385
3141.63149	6.13643
3139.70293	6.07462
3137.77437	6.00714
3135.84580	5.93027
3133.91724	5.85149
3131.98867	5.77737
3130.06011	5.71133
3128.13154	5.64529
3126.20298	5.57157
3124.27441	5.49566
3122.34585	5.42397
3120.41729	5.35637
3118.48872	5.29252
3116.56016	5.23058
3114.63159	5.15929
3112.70303	5.08044
3110.77446	5.00789
3108.84590	4.94056
3106.91733	4.87346
3104.98877	4.80655
3103.06021	4.74037
3101.13164	4.67417
3099.20308	4.60744
3097.27451	4.54142
3095.34595	4.47347
3093.41738	4.40033
3091.48882	4.32846
3089.56025	4.26524
3087.63169	4.20698
3085.70312	4.14865
3083.77456	4.08770
3081.84600	4.02320
3079.91743	3.95897
3077.98887	3.89871
3076.06030	3.84150
3074.13174	3.78333
3072.20317	3.72316
3070.27461	3.66380
3068.34604	3.60677
3066.41748	3.55017
3064.48892	3.49315
3062.56035	3.43732
3060.63179	3.38290
3058.70322	3.32935
3056.77466	3.27581
3054.84609	3.22114
3052.91753	3.16729
3050.98896	3.11602
3049.06040	3.06545
3047.13184	3.01479
3045.20327	2.96440
3043.27471	2.91403
3041.34614	2.86480
3039.41758	2.81713
3037.48901	2.76972
3035.56045	2.72300
3033.63188	2.67806
3031.70332	2.63351
3029.77476	2.58814
3027.84619	2.54298
3025.91763	2.49886
3023.98906	2.45538
3022.06050	2.41265
3020.13193	2.37091
3018.20337	2.32980
3016.27480	2.28931
3014.34624	2.24957
3012.41768	2.21075
3010.48911	2.17294
3008.56055	2.13561
3006.63198	2.09828
3004.70342	2.06101
3002.77485	2.02459
3000.84629	1.98972
2998.91772	1.95614
2996.98916	1.92334
2995.06060	1.89080
2993.13203	1.85851
2991.20347	1.82695
2989.27490	1.79611
2987.34634	1.76596
2985.41777	1.73694
2983.48921	1.70874
2981.56064	1.68056
2979.63208	1.65247
2977.70352	1.62515
2975.77495	1.59887
2973.84639	1.57300
2971.91782	1.54720
2969.98926	1.52229
2968.06069	1.49823
2966.13213	1.47394
2964.20356	1.44937
2962.27500	1.42479
2960.34644	1.40019
2958.41787	1.37585
2956.48931	1.35162
2954.56074	1.32748
2952.63218	1.30383
2950.70361	1.28061
2948.77505	1.25746
2946.84648	1.23459
2944.91792	1.21267
2942.98936	1.19161
2941.06079	1.17087
2939.13223	1.15020
2937.20366	1.12951
2935.27510	1.10893
2933.34653	1.08869
2931.41797	1.06904
2929.48940	1.05002
2927.56084	1.03129
2925.63228	1.01262
2923.70371	0.99427
2921.77515	0.97622
2919.84658	0.95834
2917.91802	0.94078
2915.98945	0.92355
2914.06089	0.90689
2912.13232	0.89117
2910.20376	0.87607
2908.27520	0.86104
2906.34663	0.84604
2904.41807	0.83132
2902.48950	0.81723
2900.56094	0.80368
2898.63237	0.79024
2896.70381	0.77699
2894.77524	0.76407
2892.84668	0.75146
2890.91812	0.73945
2888.98955	0.72806
2887.06099	0.71679
2885.13242	0.70566
2883.20386	0.69508
2881.27529	0.68501
2879.34673	0.67523
2877.41816	0.66542
2875.48960	0.65525
2873.56104	0.64475
2871.63247	0.63399
2869.70391	0.62289
2867.77534	0.61147
2865.84678	0.59980
2863.91821	0.58800
2861.98965	0.57631
2860.06108	0.56511
2858.13252	0.55455
2856.20396	0.54453
2854.27539	0.53479
2852.34683	0.52533
2850.41826	0.51643
2848.48970	0.50783
2846.56113	0.49935
2844.63257	0.49158
2842.70400	0.48477
2840.77544	0.47840
2838.84687	0.47201
2836.91831	0.46569
2834.98975	0.45967
2833.06118	0.45387
2831.13262	0.44809
2829.20405	0.44221
2827.27549	0.43613
2825.34692	0.42990
2823.41836	0.42378
2821.48979	0.41778
2819.56123	0.41170
2817.63267	0.40565
2815.70410	0.39981
2813.77554	0.39406
2811.84697	0.38830
2809.91841	0.38266
2807.98984	0.37717
2806.06128	0.37178
2804.13271	0.36645
2802.20415	0.36121
2800.27559	0.35610
2798.34702	0.35119
2796.41846	0.34645
2794.48989	0.34165
2792.56133	0.33681
2790.63276	0.33208
2788.70420	0.32738
2786.77563	0.32266
2784.84707	0.31815
2782.91851	0.31392
2780.98994	0.30989
2779.06138	0.30595
2777.13281	0.30200
2775.20425	0.29794
2773.27568	0.29379
2771.34712	0.28975
2769.41855	0.28597
2767.48999	0.28240
2765.56143	0.27891
2763.63286	0.27540
2761.70430	0.27190
2759.77573	0.26839
2757.84717	0.26489
2755.91860	0.26159
2753.99004	0.25849
2752.06147	0.25543
2750.13291	0.25243
2748.20435	0.24953
2746.27578	0.24659
2744.34722	0.24368
2742.41865	0.24084
2740.49009	0.23813
2738.56152	0.23561
2736.63296	0.23307
2734.70439	0.23031
2732.77583	0.22751
2730.84727	0.22496
2728.91870	0.22281
2726.99014	0.22084
2725.06157	0.21876
2723.13301	0.21660
2721.20444	0.21432
2719.27588	0.21203
2717.34731	0.20992
2715.41875	0.20794
2713.49019	0.20603
2711.56162	0.20423
2709.63306	0.20246
2707.70449	0.20063
2705.77593	0.19885
2703.84736	0.19728
2701.91880	0.19579
2699.99023	0.19421
2698.06167	0.19255
2696.13311	0.19090
2694.20454	0.18936
2692.27598	0.18789
2690.34741	0.18651
2688.41885	0.18522
2686.49028	0.18387
2684.56172	0.18247
2682.63315	0.18119
2680.70459	0.17993
2678.77603	0.17865
2676.84746	0.17745
2674.91890	0.17632
2672.99033	0.17518
2671.06177	0.17400
2669.13320	0.17288
2667.20464	0.17186
2665.27607	0.17086
2663.34751	0.16984
2661.41895	0.16886
2659.49038	0.16794
2657.56182	0.16711
2655.63325	0.16633
2653.70469	0.16554
2651.77612	0.16479
2649.84756	0.16419
2647.91899	0.16360
2645.99043	0.16283
2644.06187	0.16210
2642.13330	0.16148
2640.20474	0.16083
2638.27617	0.16015
2636.34761	0.15955
2634.41904	0.15904
2632.49048	0.15851
2630.56191	0.15803
2628.63335	0.15771
2626.70479	0.15738
2624.77622	0.15692
2622.84766	0.15654
2620.91909	0.15632
2618.99053	0.15615
2617.06196	0.15589
2615.13340	0.15556
2613.20483	0.15523
2611.27627	0.15491
2609.34771	0.15473
2607.41914	0.15473
2605.49058	0.15480
2603.56201	0.15475
2601.63345	0.15457
2599.70488	0.15438
2597.77632	0.15431
2595.84775	0.15434
2593.91919	0.15436
2591.99062	0.15437
2590.06206	0.15448
2588.13350	0.15469
2586.20493	0.15495
2584.27637	0.15520
2582.34780	0.15533
2580.41924	0.15542
2578.49067	0.15560
2576.56211	0.15589
2574.63354	0.15618
2572.70498	0.15651
2570.77642	0.15693
2568.84785	0.15741
2566.91929	0.15780
2564.99072	0.15803
2563.06216	0.15821
2561.13359	0.15851
2559.20503	0.15899
2557.27646	0.15958
2555.34790	0.16008
2553.41934	0.16040
2551.49077	0.16077
2549.56221	0.16139
2547.63364	0.16211
2545.70508	0.16271
2543.77651	0.16314
2541.84795	0.16359
2539.91938	0.16416
2537.99082	0.16480
2536.06226	0.16544
2534.13369	0.16610
2532.20513	0.16676
2530.27656	0.16736
2528.34800	0.16801
2526.41943	0.16880
2524.49087	0.16954
2522.56230	0.17022
2520.63374	0.17095
2518.70518	0.17169
2516.77661	0.17236
2514.84805	0.17297
2512.91948	0.17370
2510.99092	0.17458
2509.06235	0.17543
2507.13379	0.17618
2505.20522	0.17685
2503.27666	0.17751
2501.34810	0.17837
2499.41953	0.17938
2497.49097	0.18030
2495.56240	0.18110
2493.63384	0.18179
2491.70527	0.18251
2489.77671	0.18335
2487.84814	0.18427
2485.91958	0.18522
2483.99102	0.18614
2482.06245	0.18699
2480.13389	0.18781
2478.20532	0.18861
2476.27676	0.18942
2474.34819	0.19026
2472.41963	0.19107
2470.49106	0.19192
2468.56250	0.19290
2466.63394	0.19391
2464.70537	0.19486
2462.77681	0.19572
2460.84824	0.19659
2458.91968	0.19756
2456.99111	0.19855
2455.06255	0.19949
2453.13398	0.20038
2451.20542	0.20131
2449.27686	0.20231
2447.34829	0.20326
2445.41973	0.20419
2443.49116	0.20513
2441.56260	0.20609
2439.63403	0.20714
2437.70547	0.20825
2435.77690	0.20928
2433.84834	0.21024
2431.91978	0.21122
2429.99121	0.21218
2428.06265	0.21307
2426.13408	0.21409
2424.20552	0.21526
2422.27695	0.21639
2420.34839	0.21752
2418.41982	0.21870
2416.49126	0.21983
2414.56270	0.22091
2412.63413	0.22202
2410.70557	0.22322
2408.77700	0.22450
2406.84844	0.22574
2404.91987	0.22697
2402.99131	0.22815
2401.06274	0.22922
2399.13418	0.23037
2397.20562	0.23154
2395.27705	0.23267
2393.34849	0.23391
2391.41992	0.23526
2389.49136	0.23656
2387.56279	0.23801
2385.63423	0.23981
2383.70566	0.24189
2381.77710	0.24421
2379.84854	0.24672
2377.91997	0.24944
2375.99141	0.25257
2374.06284	0.25620
2372.13428	0.26027
2370.20571	0.26450
2368.27715	0.26858
2366.34858	0.27259
2364.42002	0.27661
2362.49146	0.28032
2360.56289	0.28335
2358.63433	0.28499
2356.70576	0.28452
2354.77720	0.28305
2352.84863	0.28177
2350.92007	0.28036
2348.99150	0.27944
2347.06294	0.28015
2345.13437	0.28327
2343.20581	0.28788
2341.27725	0.29120
2339.34868	0.29288
2337.42012	0.29395
2335.49155	0.29475
2333.56299	0.29530
2331.63442	0.29637
2329.70586	0.29835
2327.77729	0.30030
2325.84873	0.30144
2323.92017	0.30199
2321.99160	0.30229
2320.06304	0.30250
2318.13447	0.30279
2316.20591	0.30333
2314.27734	0.30430
2312.34878	0.30569
2310.42021	0.30702
2308.49165	0.30798
2306.56309	0.30887
2304.63452	0.30991
2302.70596	0.31108
2300.77739	0.31251
2298.84883	0.31416
2296.92026	0.31570
2294.99170	0.31716
2293.06313	0.31877
2291.13457	0.32036
2289.20601	0.32199
2287.27744	0.32366
2285.34888	0.32522
2283.42031	0.32681
2281.49175	0.32862
2279.56318	0.33073
2277.63462	0.33304
2275.70605	0.33529
2273.77749	0.33734
2271.84893	0.33928
2269.92036	0.34130
2267.99180	0.34351
2266.06323	0.34577
2264.13467	0.34791
2262.20610	0.35000
2260.27754	0.35212
2258.34897	0.35419
2256.42041	0.35617
2254.49185	0.35821
2252.56328	0.36043
2250.63472	0.36273
2248.70615	0.36503
2246.77759	0.36738
2244.84902	0.36969
2242.92046	0.37175
2240.99189	0.37368
2239.06333	0.37575
2237.13477	0.37801
2235.20620	0.38030
2233.27764	0.38248
2231.34907	0.38457
2229.42051	0.38673
2227.49194	0.38910
2225.56338	0.39152
2223.63481	0.39382
2221.70625	0.39603
2219.77769	0.39819
2217.84912	0.40036
2215.92056	0.40259
2213.99199	0.40480
2212.06343	0.40695
2210.13486	0.40913
2208.20630	0.41132
2206.27773	0.41345
2204.34917	0.41546
2202.42061	0.41744
2200.49204	0.41952
2198.56348	0.42169
2196.63491	0.42377
2194.70635	0.42569
2192.77778	0.42763
2190.84922	0.42963
2188.92065	0.43154
2186.99209	0.43337
2185.06353	0.43515
2183.13496	0.43688
2181.20640	0.43864
2179.27783	0.44035
2177.34927	0.44199
2175.42070	0.44356
2173.49214	0.44499
2171.56357	0.44631
2169.63501	0.44766
2167.70645	0.44904
2165.77788	0.45042
2163.84932	0.45175
2161.92075	0.45299
2159.99219	0.45417
2158.06362	0.45526
2156.13506	0.45628
2154.20649	0.45717
2152.27793	0.45791
2150.34937	0.45862
2148.42080	0.45930
2146.49224	0.45989
2144.56367	0.46034
2142.63511	0.46070
2140.70654	0.46105
2138.77798	0.46136
2136.84941	0.46165
2134.92085	0.46184
2132.99229	0.46176
2131.06372	0.46150
2129.13516	0.46129
2127.20659	0.46113
2125.27803	0.46081
2123.34946	0.46025
2121.42090	0.45972
2119.49233	0.45935
2117.56377	0.45899
2115.63521	0.45846
2113.70664	0.45771
2111.77808	0.45675
2109.84951	0.45562
2107.92095	0.45444
2105.99238	0.45329
2104.06382	0.45214
2102.13525	0.45097
2100.20669	0.44977
2098.27812	0.44837
2096.34956	0.44678
2094.42100	0.44519
2092.49243	0.44364
2090.56387	0.44204
2088.63530	0.44031
2086.70674	0.43846
2084.77817	0.43653
2082.84961	0.43462
2080.92104	0.43268
2078.99248	0.43061
2077.06392	0.42847
2075.13535	0.42635
2073.20679	0.42419
2071.27822	0.42195
2069.34966	0.41973
2067.42109	0.41761
2065.49253	0.41547
2063.56396	0.41299
2061.63540	0.41030
2059.70684	0.40772
2057.77827	0.40521
2055.84971	0.40263
2053.92114	0.40005
2051.99258	0.39751
2050.06401	0.39493
2048.13545	0.39228
2046.20688	0.38959
2044.27832	0.38688
2042.34976	0.38418
2040.42119	0.38145
2038.49263	0.37868
2036.56406	0.37591
2034.63550	0.37310
2032.70693	0.37028
2030.77837	0.36750
2028.84980	0.36473
2026.92124	0.36201
2024.99268	0.35926
2023.06411	0.35637
2021.13555	0.35350
2019.20698	0.35092
2017.27842	0.34845
2015.34985	0.34567
2013.42129	0.34263
2011.49272	0.33974
2009.56416	0.33706
2007.63560	0.33436
2005.70703	0.33158
2003.77847	0.32880
2001.84990	0.32601
1999.92134	0.32325
1997.99277	0.32065
1996.06421	0.31826
1994.13564	0.31615
1992.20708	0.31410
1990.27852	0.31154
1988.34995	0.30860
1986.42139	0.30577
1984.49282	0.30315
1982.56426	0.30071
1980.63569	0.29838
1978.70713	0.29608
1976.77856	0.29372
1974.85000	0.29140
1972.92144	0.28917
1970.99287	0.28714
1969.06431	0.28549
1967.13574	0.28393
1965.20718	0.28179
1963.27861	0.27936
1961.35005	0.27718
1959.42148	0.27513
1957.49292	0.27318
1955.56436	0.27141
1953.63579	0.26970
1951.70723	0.26796
1949.77866	0.26628
1947.85010	0.26476
1945.92153	0.26358
1943.99297	0.26277
1942.06440	0.26170
1940.13584	0.25965
1938.20728	0.25732
1936.27871	0.25553
1934.35015	0.25416
1932.42158	0.25291
1930.49302	0.25166
1928.56445	0.25044
1926.63589	0.24942
1924.70732	0.24899
1922.77876	0.24877
1920.85020	0.24790
1918.92163	0.24689
1916.99307	0.24593
1915.06450	0.24449
1913.13594	0.24320
1911.20737	0.24275
1909.27881	0.24257
1907.35024	0.24181
1905.42168	0.24061
1903.49312	0.23964
1901.56455	0.23894
1899.63599	0.23837
1897.70742	0.23813
1895.77886	0.23815
1893.85029	0.23797
1891.92173	0.23777
1889.99316	0.23805
1888.06460	0.23779
1886.13604	0.23678
1884.20747	0.23608
1882.27891	0.23576
1880.35034	0.23556
1878.42178	0.23542
1876.49321	0.23536
1874.56465	0.23537
1872.63608	0.23580
1870.70752	0.23723
1868.77896	0.23934
1866.85039	0.23963
1864.92183	0.23805
1862.99326	0.23694
1861.06470	0.23682
1859.13613	0.23717
1857.20757	0.23752
1855.27900	0.23790
1853.35044	0.23833
1851.42187	0.23894
1849.49331	0.23993
1847.56475	0.24143
1845.63618	0.24333
1843.70762	0.24486
1841.77905	0.24470
1839.85049	0.24410
1837.92192	0.24467
1835.99336	0.24567
1834.06479	0.24654
1832.13623	0.24816
1830.20767	0.25088
1828.27910	0.25276
1826.35054	0.25333
1824.42197	0.25415
1822.49341	0.25470
1820.56484	0.25525
1818.63628	0.25645
1816.70771	0.25801
1814.77915	0.25957
1812.85059	0.26176
1810.92202	0.26452
1808.99346	0.26660
1807.06489	0.26799
1805.13633	0.26971
1803.20776	0.27252
1801.27920	0.27606
1799.35063	0.27924
1797.42207	0.28147
1795.49351	0.28394
1793.56494	0.28774
1791.63638	0.29208
1789.70781	0.29438
1787.77925	0.29554
1785.85068	0.29825
1783.92212	0.30220
1781.99355	0.30658
1780.06499	0.31108
1778.13643	0.31527
1776.20786	0.31955
1774.27930	0.32520
1772.35073	0.33266
1770.42217	0.33884
1768.49360	0.34263
1766.56504	0.34644
1764.63647	0.35127
1762.70791	0.35770
1760.77935	0.36565
1758.85078	0.37256
1756.92222	0.37954
1754.99365	0.38710
1753.06509	0.39448
1751.13652	0.40443
1749.20796	0.41651
1747.27939	0.42664
1745.35083	0.43471
1743.42227	0.44365
1741.49370	0.45400
1739.56514	0.46624
1737.63657	0.47854
1735.70801	0.49039
1733.77944	0.50850
1731.85088	0.52761
1729.92231	0.54123
1727.99375	0.55549
1726.06519	0.57188
1724.13662	0.59072
1722.20806	0.61137
1720.27949	0.63129
1718.35093	0.65577
1716.42236	0.68961
1714.49380	0.71855
1712.56523	0.74123
1710.63667	0.76452
1708.70811	0.79104
1706.77954	0.82193
1704.85098	0.85801
1702.92241	0.88997
1700.99385	0.92273
1699.06528	0.97110
1697.13672	1.01467
1695.20815	1.05806
1693.27959	1.10001
1691.35103	1.13488
1689.42246	1.17651
1687.49390	1.22150
1685.56533	1.26688
1683.63677	1.33484
1681.70820	1.40127
1679.77964	1.44287
1677.85107	1.48370
1675.92251	1.53207
1673.99395	1.59194
1672.06538	1.64588
1670.13682	1.69940
1668.20825	1.76692
1666.27969	1.82191
1664.35112	1.87088
1662.42256	1.93270
1660.49399	2.00091
1658.56543	2.05479
1656.63687	2.10043
1654.70830	2.14405
1652.77974	2.20683
1650.85117	2.26196
1648.92261	2.28178
1646.99404	2.30643
1645.06548	2.33021
1643.13691	2.34660
1641.20835	2.35749
1639.27979	2.36628
1637.35122	2.37080
1635.42266	2.37040
1633.49409	2.36186
1631.56553	2.34638
1629.63696	2.32910
1627.70840	2.30097
1625.77983	2.26646
1623.85127	2.22277
1621.92271	2.16954
1619.99414	2.12067
1618.06558	2.07319
1616.13701	2.00787
1614.20845	1.94044
1612.27988	1.88797
1610.35132	1.83447
1608.42275	1.77798
1606.49419	1.72268
1604.56562	1.67169
1602.63706	1.62282
1600.70850	1.57519
1598.77993	1.53097
1596.85137	1.48940
1594.92280	1.44936
1592.99424	1.41051
1591.06567	1.37466
1589.13711	1.34143
1587.20854	1.31080
1585.27998	1.28269
1583.35142	1.25663
1581.42285	1.23289
1579.49429	1.21325
1577.56572	1.19721
1575.63716	1.17791
1573.70859	1.15898
1571.78003	1.14674
1569.85146	1.13635
1567.92290	1.12492
1565.99434	1.11582
1564.06577	1.10969
1562.13721	1.10625
1560.20864	1.10724
1558.28008	1.11225
1556.35151	1.11281
1554.42295	1.11133
1552.49438	1.11101
1550.56582	1.11019
1548.63726	1.10721
1546.70869	1.10210
1544.78013	1.09493
1542.85156	1.08506
1540.92300	1.06923
1538.99443	1.03990
1537.06587	1.01450
1535.13730	0.99782
1533.20874	0.97800
1531.28018	0.95623
1529.35161	0.94010
1527.42305	0.92610
1525.49448	0.91212
1523.56592	0.90058
1521.63735	0.89010
1519.70879	0.87828
1517.78022	0.86748
1515.85166	0.85490
1513.92310	0.84091
1511.99453	0.82928
1510.06597	0.82078
1508.13740	0.81443
1506.20884	0.80090
1504.28027	0.78396
1502.35171	0.77423
1500.42314	0.76786
1498.49458	0.76228
1496.56602	0.75500
1494.63745	0.74638
1492.70889	0.74019
1490.78032	0.73665
1488.85176	0.73240
1486.92319	0.72581
1484.99463	0.71982
1483.06606	0.71612
1481.13750	0.71388
1479.20894	0.71234
1477.28037	0.71221
1475.35181	0.71383
1473.42324	0.71593
1471.49468	0.71522
1469.56611	0.71151
1467.63755	0.70840
1465.70898	0.70707
1463.78042	0.70638
1461.85186	0.70567
1459.92329	0.70651
1457.99473	0.70919
1456.06616	0.70900
1454.13760	0.70409
1452.20903	0.69968
1450.28047	0.69664
1448.35190	0.69414
1446.42334	0.69096
1444.49478	0.68748
1442.56621	0.68449
1440.63765	0.68183
1438.70908	0.67972
1436.78052	0.67755
1434.85195	0.67396
1432.92339	0.67057
1430.99482	0.66880
1429.06626	0.66785
1427.13770	0.66711
1425.20913	0.66740
1423.28057	0.66856
1421.35200	0.66960
1419.42344	0.67089
1417.49487	0.67098
1415.56631	0.66876
1413.63774	0.66683
1411.70918	0.66627
1409.78062	0.66658
1407.85205	0.66747
1405.92349	0.66909
1403.99492	0.67045
1402.06636	0.67053
1400.13779	0.67013
1398.20923	0.66930
1396.28066	0.66717
1394.35210	0.66315
1392.42354	0.65791
1390.49497	0.65337
1388.56641	0.64972
1386.63784	0.64547
1384.70928	0.64008
1382.78071	0.63477
1380.85215	0.63030
1378.92358	0.62684
1376.99502	0.62458
1375.06646	0.62346
1373.13789	0.62229
1371.20933	0.62088
1369.28076	0.62005
1367.35220	0.61926
1365.42363	0.61820
1363.49507	0.61727
1361.56650	0.61573
1359.63794	0.61329
1357.70937	0.61110
1355.78081	0.60953
1353.85225	0.60836
1351.92368	0.60737
1349.99512	0.60652
1348.06655	0.60563
1346.13799	0.60460
1344.20942	0.60366
1342.28086	0.60321
1340.35229	0.60329
1338.42373	0.60283
1336.49517	0.60135
1334.56660	0.60001
1332.63804	0.59946
1330.70947	0.59942
1328.78091	0.59966
1326.85234	0.60019
1324.92378	0.60089
1322.99521	0.60176
1321.06665	0.60282
1319.13809	0.60370
1317.20952	0.60400
1315.28096	0.60395
1313.35239	0.60372
1311.42383	0.60307
1309.49526	0.60208
1307.56670	0.60108
1305.63813	0.60014
1303.70957	0.59926
1301.78101	0.59836
1299.85244	0.59733
1297.92388	0.59620
1295.99531	0.59498
1294.06675	0.59372
1292.13818	0.59248
1290.20962	0.59116
1288.28105	0.58977
1286.35249	0.58836
1284.42393	0.58692
1282.49536	0.58553
1280.56680	0.58425
1278.63823	0.58291
1276.70967	0.58138
1274.78110	0.57996
1272.85254	0.57904
1270.92397	0.57855
1268.99541	0.57809
1267.06685	0.57737
1265.13828	0.57647
1263.20972	0.57566
1261.28115	0.57492
1259.35259	0.57408
1257.42402	0.57330
1255.49546	0.57294
1253.56689	0.57291
1251.63833	0.57301
1249.70977	0.57306
1247.78120	0.57299
1245.85264	0.57282
1243.92407	0.57245
1241.99551	0.57159
1240.06694	0.57017
1238.13838	0.56841
1236.20981	0.56641
1234.28125	0.56411
1232.35269	0.56181
1230.42412	0.55979
1228.49556	0.55786
1226.56699	0.55579
1224.63843	0.55369
1222.70986	0.55177
1220.78130	0.55011
1218.85273	0.54858
1216.92417	0.54709
1214.99561	0.54581
1213.06704	0.54492
1211.13848	0.54433
1209.20991	0.54376
1207.28135	0.54311
1205.35278	0.54229
1203.42422	0.54128
1201.49565	0.54027
1199.56709	0.53936
1197.63853	0.53847
1195.70996	0.53761
1193.78140	0.53689
1191.85283	0.53631
1189.92427	0.53585
1187.99570	0.53546
1186.06714	0.53516
1184.13857	0.53510
1182.21001	0.53547
1180.28145	0.53646
1178.35288	0.53795
1176.42432	0.53955
1174.49575	0.54093
1172.56719	0.54188
1170.63862	0.54253
1168.71006	0.54305
1166.78149	0.54349
1164.85293	0.54385
1162.92437	0.54419
1160.99580	0.54454
1159.06724	0.54473
1157.13867	0.54453
1155.21011	0.54390
1153.28154	0.54280
1151.35298	0.54111
1149.42441	0.53882
1147.49585	0.53607
1145.56729	0.53300
1143.63872	0.52993
1141.71016	0.52723
1139.78159	0.52513
1137.85303	0.52376
1135.92446	0.52310
1133.99590	0.52303
1132.06733	0.52328
1130.13877	0.52354
1128.21021	0.52355
1126.28164	0.52327
1124.35308	0.52295
1122.42451	0.52284
1120.49595	0.52302
1118.56738	0.52351
1116.63882	0.52413
1114.71025	0.52482
1112.78169	0.52558
1110.85312	0.52631
1108.92456	0.52703
1106.99600	0.52790
1105.06743	0.52888
1103.13887	0.52983
1101.21030	0.53077
1099.28174	0.53192
1097.35317	0.53358
1095.42461	0.53592
1093.49604	0.53933
1091.56748	0.54411
1089.63892	0.55035
1087.71035	0.55815
1085.78179	0.56714
1083.85322	0.57624
1081.92466	0.58421
1079.99609	0.58992
1078.06753	0.59254
1076.13896	0.59185
1074.21040	0.58820
1072.28184	0.58261
1070.35327	0.57595
1068.42471	0.56853
1066.49614	0.56113
1064.56758	0.55462
1062.63901	0.54922
1060.71045	0.54462
1058.78188	0.54029
1056.85332	0.53610
1054.92476	0.53241
1052.99619	0.52951
1051.06763	0.52741
1049.13906	0.52607
1047.21050	0.52544
1045.28193	0.52529
1043.35337	0.52537
1041.42480	0.52560
1039.49624	0.52589
1037.56768	0.52604
1035.63911	0.52594
1033.71055	0.52544
1031.78198	0.52417
1029.85342	0.52227
1027.92485	0.52017
1025.99629	0.51807
1024.06772	0.51631
1022.13916	0.51512
1020.21060	0.51439
1018.28203	0.51389
1016.35347	0.51346
1014.42490	0.51286
1012.49634	0.51205
1010.56777	0.51134
1008.63921	0.51094
1006.71064	0.51099
1004.78208	0.51180
1002.85352	0.51339
1000.92495	0.51570
998.99639	0.51890
997.06782	0.52293
995.13926	0.52742
993.21069	0.53181
991.28213	0.53526
989.35356	0.53720
987.42500	0.53769
985.49644	0.53724
983.56787	0.53665
981.63931	0.53659
979.71074	0.53720
977.78218	0.53830
975.85361	0.53986
973.92505	0.54201
971.99648	0.54487
970.06792	0.54826
968.13936	0.55191
966.21079	0.55594
964.28223	0.56033
962.35366	0.56485
960.42510	0.56959
958.49653	0.57480
956.56797	0.58047
954.63940	0.58647
952.71084	0.59272
950.78228	0.59922
948.85371	0.60586
946.92515	0.61232
944.99658	0.61843
943.06802	0.62458
941.13945	0.63100
939.21089	0.63742
937.28232	0.64352
935.35376	0.64917
933.42520	0.65472
931.49663	0.66039
929.56807	0.66590
927.63950	0.67146
925.71094	0.67758
923.78237	0.68407
921.85381	0.69047
919.92524	0.69685
917.99668	0.70379
916.06812	0.71147
914.13955	0.71962
912.21099	0.72820
910.28242	0.73651
908.35386	0.74413
906.42529	0.75198
904.49673	0.76044
902.56816	0.76949
900.63960	0.77919
898.71104	0.78920
896.78247	0.79939
894.85391	0.80955
892.92534	0.81897
890.99678	0.82857
889.06821	0.83973
887.13965	0.85116
885.21108	0.86164
883.28252	0.87199
881.35396	0.88335
879.42539	0.89570
877.49683	0.90827
875.56826	0.92026
873.63970	0.93106
871.71113	0.94140
869.78257	0.95222
867.85400	0.96359
865.92544	0.97577
863.99687	0.98832
862.06831	0.99943
860.13975	1.00959
858.21118	1.02189
856.28262	1.03650
854.35405	1.05065
852.42549	1.06284
850.49692	1.07381
848.56836	1.08351
846.63979	1.09173
844.71123	1.10116
842.78267	1.11422
840.85410	1.12994
838.92554	1.14461
836.99697	1.15615
835.06841	1.16486
833.13984	1.17220
831.21128	1.18143
829.28271	1.19393
827.35415	1.20637
825.42559	1.21671
823.49702	1.22735
821.56846	1.23650
819.63989	1.24389
817.71133	1.26054
815.78276	1.29206
813.85420	1.31786
811.92563	1.32099
809.99707	1.31727
808.06851	1.31534
806.13994	1.31526
804.21138	1.32278
802.28281	1.33691
800.35425	1.35106
798.42568	1.35947
796.49712	1.35472
794.56855	1.35544
792.63999	1.38536
790.71143	1.40726
788.78286	1.40731
786.85430	1.41821
784.92573	1.41025
782.99717	1.39486
781.06860	1.41973
779.14004	1.42065
777.21147	1.36915
775.28291	1.32945
773.35435	1.29878
771.42578	1.30020
769.49722	1.34820
767.56865	1.37824
765.64009	1.37885
763.71152	1.37914
761.78296	1.38246
759.85439	1.49708
757.92583	2.10859
755.99727	4.53598
754.06870	1.64541
752.14014	1.30254
750.21157	1.21551
748.28301	1.23493
746.35444	1.26773
744.42588	1.27788
742.49731	1.32615
740.56875	1.27025
738.64019	1.06231
736.71162	0.94648
734.78306	0.93276
732.85449	0.91364
730.92593	0.80932
728.99736	0.66763
727.06880	0.53254
725.14023	0.41445
723.21167	0.35610
721.28311	0.36653
719.35454	0.32043
717.42598	0.20253
715.49741	0.18376
713.56885	0.20226
711.64028	0.11405
709.71172	0.18725
707.78315	1.04986
705.85459	4.23513
703.92603	0.70837
701.99746	0.45714
700.06890	0.40605
698.14033	0.40747
696.21177	0.42239
694.28320	0.50460
692.35464	0.68700
690.42607	0.76552
688.49751	0.61489
686.56895	0.46262
684.64038	0.43058
682.71182	0.48602
680.78325	0.49830
678.85469	0.51954
676.92612	0.59379
674.99756	0.50323
673.06899	0.40136
671.14043	0.39728
669.21187	0.37267
667.28330	0.28486
665.35474	0.23478
663.42617	0.23185
661.49761	0.26631
659.56904	0.36738
657.64048	0.52137
655.71191	0.49326
653.78335	0.37069
651.85479	0.36986
649.92622	0.39741
647.99766	0.36971
646.06909	0.40468
644.14053	0.53374
642.21196	0.65033
640.28340	0.63029
638.35483	0.60154
636.42627	0.54902
634.49771	0.38183
632.56914	0.30803
630.64058	0.37340
628.71201	0.48013
626.78345	0.49849
624.85488	0.41039
622.92632	0.28315
620.99775	0.22749
619.06919	0.25305
617.14062	0.28905
615.21206	0.30176
613.28350	0.30562
611.35493	0.30444
609.42637	0.33219
607.49780	0.38183
605.56924	0.37294
603.64067	0.37450
601.71211	0.48312
599.78354	0.46201
597.85498	0.25812
595.92642	0.15387
593.99785	0.15243
592.06929	0.23481
590.14072	0.33844
588.21216	0.40535
586.28359	0.41428
584.35503	0.37072
582.42646	0.36307
580.49790	0.40041
578.56934	0.43401
576.64077	0.44354
574.71221	0.42522
572.78364	0.41327
570.85508	0.38169
568.92651	0.30503
566.99795	0.25409
565.06938	0.31738
563.14082	0.52047
561.21226	0.66961
559.28369	0.49139
557.35513	0.35718
555.42656	0.25782
553.49800	0.19632
551.56943	0.17295
549.64087	0.16690
547.71230	0.20618
545.78374	0.26589
543.85518	0.27830
541.92661	0.28556
539.99805	0.26807
538.06948	0.22621
536.14092	0.23273
534.21235	0.29120
532.28379	0.37727
530.35522	0.41453
528.42666	0.37001
526.49810	0.33426
524.56953	0.35406
522.64097	0.47926
520.71240	0.58816
518.78384	0.39663
516.85527	0.23794
514.92671	0.18212
512.99814	0.20553
511.06958	0.27813
509.14102	0.32511
507.21245	0.29782
505.28389	0.27871
503.35532	0.28227
501.42676	0.26779
499.49819	0.24764
