3997.91411	0.06976
3995.98555	0.07024
3994.05698	0.07119
3992.12842	0.07197
3990.19985	0.07236
3988.27129	0.07218
3986.34272	0.07217
3984.41416	0.07291
3982.48560	0.07375
3980.55703	0.07389
3978.62847	0.07353
3976.69990	0.07378
3974.77134	0.07479
3972.84277	0.07544
3970.91421	0.07545
3968.98564	0.07545
3967.05708	0.07523
3965.12852	0.07471
3963.19995	0.07504
3961.27139	0.07615
3959.34282	0.07651
3957.41426	0.07629
3955.48569	0.07641
3953.55713	0.07673
3951.62856	0.07776
3949.70000	0.07985
3947.77144	0.08112
3945.84287	0.08038
3943.91431	0.08018
3941.98574	0.08110
3940.05718	0.08004
3938.12861	0.07755
3936.20005	0.07646
3934.27148	0.07776
3932.34292	0.08082
3930.41436	0.08282
3928.48579	0.08181
3926.55723	0.08068
3924.62866	0.08188
3922.70010	0.08267
3920.77153	0.08147
3918.84297	0.08152
3916.91440	0.08290
3914.98584	0.08156
3913.05728	0.07780
3911.12871	0.07526
3909.20015	0.07505
3907.27158	0.07776
3905.34302	0.08447
3903.41445	0.09280
3901.48589	0.09698
3899.55732	0.09560
3897.62876	0.08997
3895.70020	0.08361
3893.77163	0.08223
3891.84307	0.08592
3889.91450	0.08756
3887.98594	0.08550
3886.05737	0.08641
3884.12881	0.08959
3882.20024	0.09073
3880.27168	0.09088
3878.34312	0.08808
3876.41455	0.08444
3874.48599	0.08621
3872.55742	0.09179
3870.62886	0.09657
3868.70029	0.09784
3866.77173	0.09545
3864.84316	0.09530
3862.91460	0.09661
3860.98604	0.09325
3859.05747	0.08898
3857.12891	0.08990
3855.20034	0.09719
3853.27178	0.10918
3851.34321	0.11132
3849.41465	0.09937
3847.48608	0.08975
3845.55752	0.08739
3843.62896	0.09145
3841.70039	0.09868
3839.77183	0.10629
3837.84326	0.11147
3835.91470	0.10975
3833.98613	0.10429
3832.05757	0.10054
3830.12900	0.09823
3828.20044	0.09717
3826.27187	0.09830
3824.34331	0.10083
3822.41475	0.10643
3820.48618	0.11523
3818.55762	0.11746
3816.62905	0.11422
3814.70049	0.11002
3812.77192	0.10330
3810.84336	0.09900
3808.91479	0.10069
3806.98623	0.10723
3805.05767	0.11318
3803.12910	0.11728
3801.20054	0.12260
3799.27197	0.12358
3797.34341	0.12011
3795.41484	0.11709
3793.48628	0.11308
3791.55771	0.10975
3789.62915	0.10938
3787.70059	0.11129
3785.77202	0.11472
3783.84346	0.11800
3781.91489	0.11989
3779.98633	0.12269
3778.05776	0.12526
3776.12920	0.12401
3774.20063	0.12262
3772.27207	0.12520
3770.34351	0.13134
3768.41494	0.13672
3766.48638	0.13841
3764.55781	0.13871
3762.62925	0.13943
3760.70068	0.14305
3758.77212	0.14985
3756.84355	0.15467
3754.91499	0.15702
3752.98643	0.16329
3751.05786	0.17588
3749.12930	0.18533
3747.20073	0.18516
3745.27217	0.18525
3743.34360	0.18702
3741.41504	0.18612
3739.48647	0.18675
3737.55791	0.19334
3735.62935	0.20626
3733.70078	0.21664
3731.77222	0.21496
3729.84365	0.20958
3727.91509	0.20946
3725.98652	0.21575
3724.05796	0.22429
3722.12939	0.23094
3720.20083	0.23561
3718.27227	0.23915
3716.34370	0.24352
3714.41514	0.25171
3712.48657	0.26734
3710.55801	0.28831
3708.62944	0.30115
3706.70088	0.30561
3704.77231	0.31255
3702.84375	0.32597
3700.91519	0.34419
3698.98662	0.36125
3697.05806	0.37693
3695.12949	0.39573
3693.20093	0.41814
3691.27236	0.44569
3689.34380	0.48023
3687.41523	0.51296
3685.48667	0.53551
3683.55811	0.55682
3681.62954	0.58466
3679.70098	0.61985
3677.77241	0.65951
3675.84385	0.70687
3673.91528	0.76264
3671.98672	0.80353
3670.05815	0.84230
3668.12959	0.89264
3666.20103	0.93306
3664.27246	0.96799
3662.34390	1.01010
3660.41533	1.05826
3658.48677	1.10738
3656.55820	1.16063
3654.62964	1.21848
3652.70107	1.26758
3650.77251	1.31586
3648.84395	1.38246
3646.91538	1.44963
3644.98682	1.48948
3643.05825	1.52163
3641.12969	1.55947
3639.20112	1.60303
3637.27256	1.64767
3635.34399	1.69269
3633.41543	1.73909
3631.48687	1.78394
3629.55830	1.83125
3627.62974	1.88788
3625.70117	1.93204
3623.77261	1.96077
3621.84404	1.99428
3619.91548	2.03769
3617.98691	2.08787
3616.05835	2.13143
3614.12979	2.16773
3612.20122	2.20650
3610.27266	2.24445
3608.34409	2.28387
3606.41553	2.32576
3604.48696	2.36262
3602.55840	2.39679
3600.62983	2.43556
3598.70127	2.47672
3596.77271	2.51719
3594.84414	2.55965
3592.91558	2.60147
3590.98701	2.63880
3589.05845	2.67644
3587.12988	2.72423
3585.20132	2.77321
3583.27275	2.81081
3581.34419	2.84549
3579.41562	2.88368
3577.48706	2.92494
3575.55850	2.96783
3573.62993	3.01220
3571.70137	3.05542
3569.77280	3.09813
3567.84424	3.14716
3565.91567	3.20599
3563.98711	3.25496
3562.05854	3.29021
3560.12998	3.32799
3558.20142	3.37098
3556.27285	3.41680
3554.34429	3.46486
3552.41572	3.51425
3550.48716	3.56104
3548.55859	3.60475
3546.63003	3.64944
3544.70146	3.69823
3542.77290	3.74673
3540.84434	3.79199
3538.91577	3.83869
3536.98721	3.88727
3535.05864	3.93562
3533.13008	3.98213
3531.20151	4.02863
3529.27295	4.07629
3527.34438	4.12637
3525.41582	4.17871
3523.48726	4.23059
3521.55869	4.28027
3519.63013	4.32622
3517.70156	4.37317
3515.77300	4.42189
3513.84443	4.46878
3511.91587	4.51639
3509.98730	4.56774
3508.05874	4.61956
3506.13018	4.66692
3504.20161	4.71251
3502.27305	4.76126
3500.34448	4.80844
3498.41592	4.85064
3496.48735	4.89525
3494.55879	4.94583
3492.63022	4.99781
3490.70166	5.04686
3488.77310	5.09439
3486.84453	5.13905
3484.91597	5.17944
3482.98740	5.22617
3481.05884	5.28217
3479.13027	5.33744
3477.20171	5.39299
3475.27314	5.44891
3473.34458	5.49907
3471.41602	5.54268
3469.48745	5.58036
3467.55889	5.61805
3465.63032	5.66373
3463.70176	5.72356
3461.77319	5.78910
3459.84463	5.84032
3457.91606	5.88079
3455.98750	5.93120
3454.05894	5.98428
3452.13037	6.02933
3450.20181	6.07913
3448.27324	6.13611
3446.34468	6.20003
3444.41611	6.26558
3442.48755	6.32317
3440.55898	6.36259
3438.63042	6.38277
3436.70186	6.41520
3434.77329	6.48128
3432.84473	6.55897
3430.91616	6.62097
3428.98760	6.66078
3427.05903	6.68721
3425.13047	6.73660
3423.20190	6.80787
3421.27334	6.87221
3419.34478	6.92601
3417.41621	6.96762
3415.48765	7.00011
3413.55908	7.03755
3411.63052	7.08736
3409.70195	7.13340
3407.77339	7.17689
3405.84482	7.21429
3403.91626	7.24248
3401.98770	7.26858
3400.05913	7.31154
3398.13057	7.38765
3396.20200	7.44676
3394.27344	7.46332
3392.34487	7.48874
3390.41631	7.55015
3388.48774	7.60489
3386.55918	7.63864
3384.63062	7.67084
3382.70205	7.71551
3380.77349	7.74580
3378.84492	7.73004
3376.91636	7.72581
3374.98779	7.77045
3373.05923	7.84880
3371.13066	7.91362
3369.20210	7.94160
3367.27354	7.95004
3365.34497	7.98446
3363.41641	8.06177
3361.48784	8.13916
3359.55928	8.18342
3357.63071	8.16967
3355.70215	8.14491
3353.77358	8.13825
3351.84502	8.10240
3349.91646	8.04445
3347.98789	8.05851
3346.05933	8.11818
3344.13076	8.11526
3342.20220	8.08684
3340.27363	8.12006
3338.34507	8.21956
3336.41650	8.29957
3334.48794	8.34713
3332.55937	8.33597
3330.63081	8.23027
3328.70225	8.13839
3326.77368	8.14800
3324.84512	8.19867
3322.91655	8.18880
3320.98799	8.16711
3319.05942	8.17436
3317.13086	8.16146
3315.20229	8.09394
3313.27373	8.07807
3311.34517	8.19027
3309.41660	8.32387
3307.48804	8.38348
3305.55947	8.37804
3303.63091	8.36437
3301.70234	8.37360
3299.77378	8.39525
3297.84521	8.44186
3295.91665	8.49759
3293.98809	8.45314
3292.05952	8.33937
3290.13096	8.24872
3288.20239	8.20540
3286.27383	8.27110
3284.34526	8.40411
3282.41670	8.48004
3280.48813	8.47534
3278.55957	8.48315
3276.63101	8.48714
3274.70244	8.37360
3272.77388	8.28421
3270.84531	8.34899
3268.91675	8.41117
3266.98818	8.38759
3265.05962	8.40051
3263.13105	8.45952
3261.20249	8.48032
3259.27393	8.39606
3257.34536	8.29729
3255.41680	8.31166
3253.48823	8.41451
3251.55967	8.45943
3249.63110	8.39490
3247.70254	8.32218
3245.77397	8.25792
3243.84541	8.23625
3241.91685	8.32254
3239.98828	8.40525
3238.05972	8.35143
3236.13115	8.26595
3234.20259	8.20875
3232.27402	8.14841
3230.34546	8.16769
3228.41689	8.28380
3226.48833	8.33307
3224.55977	8.28192
3222.63120	8.27184
3220.70264	8.30207
3218.77407	8.28192
3216.84551	8.16885
3214.91694	8.05689
3212.98838	8.09034
3211.05981	8.21918
3209.13125	8.23752
3207.20269	8.11822
3205.27412	8.00177
3203.34556	7.95450
3201.41699	7.98453
3199.48843	8.02683
3197.55986	8.00288
3195.63130	7.95455
3193.70273	7.91213
3191.77417	7.82885
3189.84561	7.72827
3187.91704	7.65943
3185.98848	7.60263
3184.05991	7.55761
3182.13135	7.52350
3180.20278	7.46042
3178.27422	7.37454
3176.34565	7.30365
3174.41709	7.24579
3172.48853	7.21218
3170.55996	7.21066
3168.63140	7.17574
3166.70283	7.09039
3164.77427	7.00852
3162.84570	6.93966
3160.91714	6.86428
3158.98857	6.78713
3157.06001	6.72834
3155.13145	6.68243
3153.20288	6.61900
3151.27432	6.53281
3149.34575	6.45338
3147.41719	6.38832
3145.48862	6.32396
3143.56006	6.25809
3141.63149	6.18403
3139.70293	6.09910
3137.77437	6.01414
3135.84580	5.93447
3133.91724	5.86060
3131.98867	5.78629
3130.06011	5.71401
3128.13154	5.65293
3126.20298	5.58998
3124.27441	5.51516
3122.34585	5.43686
3120.41729	5.36166
3118.48872	5.29492
3116.56016	5.23438
3114.63159	5.16566
3112.70303	5.08554
3110.77446	5.00598
3108.84590	4.93539
3106.91733	4.86971
3104.98877	4.80007
3103.06021	4.72737
3101.13164	4.65823
3099.20308	4.59458
3097.27451	4.53107
3095.34595	4.46356
3093.41738	4.39585
3091.48882	4.33044
3089.56025	4.26592
3087.63169	4.20170
3085.70312	4.13764
3083.77456	4.07334
3081.84600	4.00817
3079.91743	3.94339
3077.98887	3.88154
3076.06030	3.82157
3074.13174	3.76155
3072.20317	3.70194
3070.27461	3.64350
3068.34604	3.58684
3066.41748	3.53094
3064.48892	3.47451
3062.56035	3.41817
3060.63179	3.36237
3058.70322	3.30658
3056.77466	3.25060
3054.84609	3.19510
3052.91753	3.14141
3050.98896	3.08989
3049.06040	3.03975
3047.13184	2.99049
3045.20327	2.94117
3043.27471	2.89160
3041.34614	2.84215
3039.41758	2.79285
3037.48901	2.74443
3035.56045	2.69719
3033.63188	2.65164
3031.70332	2.60708
3029.77476	2.56187
3027.84619	2.51702
3025.91763	2.47315
3023.98906	2.42984
3022.06050	2.38777
3020.13193	2.34653
3018.20337	2.30500
3016.27480	2.26370
3014.34624	2.22380
3012.41768	2.18541
3010.48911	2.14787
3008.56055	2.11065
3006.63198	2.07333
3004.70342	2.03605
3002.77485	1.99939
3000.84629	1.96381
2998.91772	1.92947
2996.98916	1.89608
2995.06060	1.86310
2993.13203	1.83032
2991.20347	1.79824
2989.27490	1.76697
2987.34634	1.73625
2985.41777	1.70613
2983.48921	1.67651
2981.56064	1.64740
2979.63208	1.61886
2977.70352	1.59076
2975.77495	1.56316
2973.84639	1.53603
2971.91782	1.50911
2969.98926	1.48207
2968.06069	1.45523
2966.13213	1.42945
2964.20356	1.40429
2962.27500	1.37899
2960.34644	1.35404
2958.41787	1.32974
2956.48931	1.30566
2954.56074	1.28178
2952.63218	1.25816
2950.70361	1.23462
2948.77505	1.21169
2946.84648	1.18951
2944.91792	1.16762
2942.98936	1.14612
2941.06079	1.12511
2939.13223	1.10431
2937.20366	1.08354
2935.27510	1.06298
2933.34653	1.04307
2931.41797	1.02379
2929.48940	1.00466
2927.56084	0.98592
2925.63228	0.96783
2923.70371	0.95013
2921.77515	0.93250
2919.84658	0.91482
2917.91802	0.89757
2915.98945	0.88123
2914.06089	0.86537
2912.13232	0.84992
2910.20376	0.83516
2908.27520	0.82060
2906.34663	0.80610
2904.41807	0.79220
2902.48950	0.77892
2900.56094	0.76564
2898.63237	0.75246
2896.70381	0.73981
2894.77524	0.72744
2892.84668	0.71527
2890.91812	0.70340
2888.98955	0.69158
2887.06099	0.67997
2885.13242	0.66901
2883.20386	0.65837
2881.27529	0.64776
2879.34673	0.63748
2877.41816	0.62746
2875.48960	0.61727
2873.56104	0.60697
2871.63247	0.59665
2869.70391	0.58620
2867.77534	0.57548
2865.84678	0.56454
2863.91821	0.55370
2861.98965	0.54323
2860.06108	0.53326
2858.13252	0.52379
2856.20396	0.51464
2854.27539	0.50570
2852.34683	0.49708
2850.41826	0.48868
2848.48970	0.48028
2846.56113	0.47237
2844.63257	0.46538
2842.70400	0.45893
2840.77544	0.45275
2838.84687	0.44685
2836.91831	0.44117
2834.98975	0.43566
2833.06118	0.43019
2831.13262	0.42456
2829.20405	0.41868
2827.27549	0.41267
2825.34692	0.40674
2823.41836	0.40093
2821.48979	0.39504
2819.56123	0.38905
2817.63267	0.38320
2815.70410	0.37772
2813.77554	0.37249
2811.84697	0.36728
2809.91841	0.36198
2807.98984	0.35660
2806.06128	0.35125
2804.13271	0.34598
2802.20415	0.34088
2800.27559	0.33613
2798.34702	0.33163
2796.41846	0.32715
2794.48989	0.32273
2792.56133	0.31831
2790.63276	0.31372
2788.70420	0.30904
2786.77563	0.30462
2784.84707	0.30059
2782.91851	0.29667
2780.98994	0.29271
2779.06138	0.28888
2777.13281	0.28515
2775.20425	0.28138
2773.27568	0.27764
2771.34712	0.27400
2769.41855	0.27044
2767.48999	0.26690
2765.56143	0.26342
2763.63286	0.26016
2761.70430	0.25706
2759.77573	0.25387
2757.84717	0.25064
2755.91860	0.24760
2753.99004	0.24463
2752.06147	0.24170
2750.13291	0.23889
2748.20435	0.23608
2746.27578	0.23333
2744.34722	0.23078
2742.41865	0.22829
2740.49009	0.22578
2738.56152	0.22325
2736.63296	0.22069
2734.70439	0.21821
2732.77583	0.21580
2730.84727	0.21342
2728.91870	0.21117
2726.99014	0.20910
2725.06157	0.20709
2723.13301	0.20505
2721.20444	0.20291
2719.27588	0.20078
2717.34731	0.19881
2715.41875	0.19700
2713.49019	0.19522
2711.56162	0.19346
2709.63306	0.19176
2707.70449	0.19010
2705.77593	0.18854
2703.84736	0.18714
2701.91880	0.18571
2699.99023	0.18409
2698.06167	0.18248
2696.13311	0.18108
2694.20454	0.17977
2692.27598	0.17837
2690.34741	0.17703
2688.41885	0.17586
2686.49028	0.17472
2684.56172	0.17348
2682.63315	0.17221
2680.70459	0.17108
2678.77603	0.17014
2676.84746	0.16921
2674.91890	0.16815
2672.99033	0.16706
2671.06177	0.16604
2669.13320	0.16509
2667.20464	0.16421
2665.27607	0.16341
2663.34751	0.16266
2661.41895	0.16180
2659.49038	0.16083
2657.56182	0.15993
2655.63325	0.15920
2653.70469	0.15865
2651.77612	0.15822
2649.84756	0.15775
2647.91899	0.15715
2645.99043	0.15653
2644.06187	0.15605
2642.13330	0.15561
2640.20474	0.15506
2638.27617	0.15442
2636.34761	0.15385
2634.41904	0.15351
2632.49048	0.15321
2630.56191	0.15288
2628.63335	0.15264
2626.70479	0.15240
2624.77622	0.15206
2622.84766	0.15179
2620.91909	0.15163
2618.99053	0.15150
2617.06196	0.15138
2615.13340	0.15121
2613.20483	0.15102
2611.27627	0.15078
2609.34771	0.15052
2607.41914	0.15044
2605.49058	0.15056
2603.56201	0.15062
2601.63345	0.15057
2599.70488	0.15058
2597.77632	0.15069
2595.84775	0.15078
2593.91919	0.15077
2591.99062	0.15080
2590.06206	0.15098
2588.13350	0.15128
2586.20493	0.15161
2584.27637	0.15199
2582.34780	0.15230
2580.41924	0.15252
2578.49067	0.15275
2576.56211	0.15304
2574.63354	0.15340
2572.70498	0.15383
2570.77642	0.15429
2568.84785	0.15473
2566.91929	0.15513
2564.99072	0.15557
2563.06216	0.15604
2561.13359	0.15656
2559.20503	0.15712
2557.27646	0.15768
2555.34790	0.15815
2553.41934	0.15852
2551.49077	0.15892
2549.56221	0.15957
2547.63364	0.16035
2545.70508	0.16101
2543.77651	0.16157
2541.84795	0.16212
2539.91938	0.16271
2537.99082	0.16337
2536.06226	0.16408
2534.13369	0.16480
2532.20513	0.16548
2530.27656	0.16611
2528.34800	0.16686
2526.41943	0.16769
2524.49087	0.16846
2522.56230	0.16926
2520.63374	0.17014
2518.70518	0.17102
2516.77661	0.17173
2514.84805	0.17230
2512.91948	0.17301
2510.99092	0.17395
2509.06235	0.17493
2507.13379	0.17587
2505.20522	0.17675
2503.27666	0.17756
2501.34810	0.17839
2499.41953	0.17926
2497.49097	0.18008
2495.56240	0.18090
2493.63384	0.18172
2491.70527	0.18255
2489.77671	0.18344
2487.84814	0.18440
2485.91958	0.18541
2483.99102	0.18635
2482.06245	0.18719
2480.13389	0.18802
2478.20532	0.18887
2476.27676	0.18975
2474.34819	0.19066
2472.41963	0.19160
2470.49106	0.19264
2468.56250	0.19374
2466.63394	0.19477
2464.70537	0.19577
2462.77681	0.19677
2460.84824	0.19771
2458.91968	0.19855
2456.99111	0.19944
2455.06255	0.20045
2453.13398	0.20151
2451.20542	0.20256
2449.27686	0.20365
2447.34829	0.20478
2445.41973	0.20587
2443.49116	0.20681
2441.56260	0.20769
2439.63403	0.20871
2437.70547	0.20986
2435.77690	0.21101
2433.84834	0.21211
2431.91978	0.21311
2429.99121	0.21409
2428.06265	0.21511
2426.13408	0.21616
2424.20552	0.21731
2422.27695	0.21853
2420.34839	0.21973
2418.41982	0.22088
2416.49126	0.22202
2414.56270	0.22330
2412.63413	0.22464
2410.70557	0.22582
2408.77700	0.22693
2406.84844	0.22806
2404.91987	0.22920
2402.99131	0.23034
2401.06274	0.23153
2399.13418	0.23279
2397.20562	0.23407
2395.27705	0.23532
2393.34849	0.23656
2391.41992	0.23789
2389.49136	0.23935
2387.56279	0.24112
2385.63423	0.24345
2383.70566	0.24657
2381.77710	0.25063
2379.84854	0.25548
2377.91997	0.26072
2375.99141	0.26630
2374.06284	0.27258
2372.13428	0.27976
2370.20571	0.28762
2368.27715	0.29560
2366.34858	0.30303
2364.42002	0.30946
2362.49146	0.31532
2360.56289	0.32030
2358.63433	0.32257
2356.70576	0.32077
2354.77720	0.31576
2352.84863	0.30998
2350.92007	0.30437
2348.99150	0.30078
2347.06294	0.30151
2345.13437	0.30746
2343.20581	0.31556
2341.27725	0.32018
2339.34868	0.32156
2337.42012	0.32228
2335.49155	0.32272
2333.56299	0.32271
2331.63442	0.32318
2329.70586	0.32409
2327.77729	0.32450
2325.84873	0.32420
2323.92017	0.32354
2321.99160	0.32277
2320.06304	0.32173
2318.13447	0.32029
2316.20591	0.31895
2314.27734	0.31849
2312.34878	0.31906
2310.42021	0.31980
2308.49165	0.31999
2306.56309	0.31972
2304.63452	0.31956
2302.70596	0.31998
2300.77739	0.32098
2298.84883	0.32211
2296.92026	0.32309
2294.99170	0.32402
2293.06313	0.32500
2291.13457	0.32604
2289.20601	0.32728
2287.27744	0.32862
2285.34888	0.32986
2283.42031	0.33120
2281.49175	0.33300
2279.56318	0.33527
2277.63462	0.33757
2275.70605	0.33972
2273.77749	0.34187
2271.84893	0.34394
2269.92036	0.34593
2267.99180	0.34808
2266.06323	0.35021
2264.13467	0.35228
2262.20610	0.35447
2260.27754	0.35668
2258.34897	0.35882
2256.42041	0.36082
2254.49185	0.36271
2252.56328	0.36466
2250.63472	0.36675
2248.70615	0.36896
2246.77759	0.37129
2244.84902	0.37354
2242.92046	0.37556
2240.99189	0.37755
2239.06333	0.37971
2237.13477	0.38200
2235.20620	0.38424
2233.27764	0.38643
2231.34907	0.38864
2229.42051	0.39093
2227.49194	0.39325
2225.56338	0.39557
2223.63481	0.39785
2221.70625	0.40007
2219.77769	0.40225
2217.84912	0.40439
2215.92056	0.40669
2213.99199	0.40905
2212.06343	0.41115
2210.13486	0.41313
2208.20630	0.41536
2206.27773	0.41763
2204.34917	0.41968
2202.42061	0.42164
2200.49204	0.42370
2198.56348	0.42583
2196.63491	0.42793
2194.70635	0.43002
2192.77778	0.43205
2190.84922	0.43389
2188.92065	0.43563
2186.99209	0.43746
2185.06353	0.43931
2183.13496	0.44101
2181.20640	0.44264
2179.27783	0.44437
2177.34927	0.44617
2175.42070	0.44783
2173.49214	0.44928
2171.56357	0.45065
2169.63501	0.45198
2167.70645	0.45335
2165.77788	0.45471
2163.84932	0.45596
2161.92075	0.45708
2159.99219	0.45813
2158.06362	0.45913
2156.13506	0.46009
2154.20649	0.46102
2152.27793	0.46184
2150.34937	0.46257
2148.42080	0.46335
2146.49224	0.46415
2144.56367	0.46471
2142.63511	0.46511
2140.70654	0.46556
2138.77798	0.46594
2136.84941	0.46606
2134.92085	0.46602
2132.99229	0.46602
2131.06372	0.46605
2129.13516	0.46601
2127.20659	0.46589
2125.27803	0.46569
2123.34946	0.46529
2121.42090	0.46474
2119.49233	0.46416
2117.56377	0.46355
2115.63521	0.46279
2113.70664	0.46190
2111.77808	0.46100
2109.84951	0.46004
2107.92095	0.45897
2105.99238	0.45795
2104.06382	0.45699
2102.13525	0.45582
2100.20669	0.45443
2098.27812	0.45297
2096.34956	0.45145
2094.42100	0.44987
2092.49243	0.44826
2090.56387	0.44670
2088.63530	0.44505
2086.70674	0.44317
2084.77817	0.44118
2082.84961	0.43924
2080.92104	0.43729
2078.99248	0.43522
2077.06392	0.43306
2075.13535	0.43096
2073.20679	0.42889
2071.27822	0.42672
2069.34966	0.42442
2067.42109	0.42215
2065.49253	0.41999
2063.56396	0.41756
2061.63540	0.41486
2059.70684	0.41230
2057.77827	0.40983
2055.84971	0.40723
2053.92114	0.40462
2051.99258	0.40206
2050.06401	0.39946
2048.13545	0.39683
2046.20688	0.39421
2044.27832	0.39170
2042.34976	0.38924
2040.42119	0.38651
2038.49263	0.38347
2036.56406	0.38053
2034.63550	0.37776
2032.70693	0.37497
2030.77837	0.37215
2028.84980	0.36929
2026.92124	0.36644
2024.99268	0.36367
2023.06411	0.36093
2021.13555	0.35826
2019.20698	0.35585
2017.27842	0.35345
2015.34985	0.35046
2013.42129	0.34715
2011.49272	0.34411
2009.56416	0.34144
2007.63560	0.33884
2005.70703	0.33605
2003.77847	0.33320
2001.84990	0.33047
1999.92134	0.32785
1997.99277	0.32528
1996.06421	0.32281
1994.13564	0.32085
1992.20708	0.31913
1990.27852	0.31665
1988.34995	0.31351
1986.42139	0.31040
1984.49282	0.30753
1982.56426	0.30499
1980.63569	0.30264
1978.70713	0.30031
1976.77856	0.29796
1974.85000	0.29565
1972.92144	0.29338
1970.99287	0.29135
1969.06431	0.28984
1967.13574	0.28846
1965.20718	0.28622
1963.27861	0.28347
1961.35005	0.28117
1959.42148	0.27919
1957.49292	0.27735
1955.56436	0.27563
1953.63579	0.27377
1951.70723	0.27180
1949.77866	0.27017
1947.85010	0.26896
1945.92153	0.26806
1943.99297	0.26750
1942.06440	0.26648
1940.13584	0.26402
1938.20728	0.26129
1936.27871	0.25945
1934.35015	0.25816
1932.42158	0.25699
1930.49302	0.25577
1928.56445	0.25456
1926.63589	0.25361
1924.70732	0.25342
1922.77876	0.25346
1920.85020	0.25260
1918.92163	0.25163
1916.99307	0.25063
1915.06450	0.24881
1913.13594	0.24728
1911.20737	0.24698
1909.27881	0.24702
1907.35024	0.24618
1905.42168	0.24470
1903.49312	0.24355
1901.56455	0.24279
1899.63599	0.24223
1897.70742	0.24208
1895.77886	0.24233
1893.85029	0.24226
1891.92173	0.24207
1889.99316	0.24249
1888.06460	0.24225
1886.13604	0.24102
1884.20747	0.24011
1882.27891	0.23960
1880.35034	0.23925
1878.42178	0.23910
1876.49321	0.23908
1874.56465	0.23914
1872.63608	0.23980
1870.70752	0.24198
1868.77896	0.24508
1866.85039	0.24538
1864.92183	0.24284
1862.99326	0.24099
1861.06470	0.24068
1859.13613	0.24105
1857.20757	0.24137
1855.27900	0.24164
1853.35044	0.24206
1851.42187	0.24287
1849.49331	0.24423
1847.56475	0.24623
1845.63618	0.24879
1843.70762	0.25058
1841.77905	0.24973
1839.85049	0.24840
1837.92192	0.24879
1835.99336	0.24980
1834.06479	0.25066
1832.13623	0.25266
1830.20767	0.25627
1828.27910	0.25848
1826.35054	0.25866
1824.42197	0.25898
1822.49341	0.25892
1820.56484	0.25899
1818.63628	0.26010
1816.70771	0.26178
1814.77915	0.26351
1812.85059	0.26607
1810.92202	0.26929
1808.99346	0.27140
1807.06489	0.27249
1805.13633	0.27403
1803.20776	0.27708
1801.27920	0.28119
1799.35063	0.28469
1797.42207	0.28683
1795.49351	0.28938
1793.56494	0.29371
1791.63638	0.29838
1789.70781	0.29987
1787.77925	0.30010
1785.85068	0.30266
1783.92212	0.30685
1781.99355	0.31152
1780.06499	0.31621
1778.13643	0.32037
1776.20786	0.32490
1774.27930	0.33149
1772.35073	0.34008
1770.42217	0.34621
1768.49360	0.34898
1766.56504	0.35186
1764.63647	0.35637
1762.70791	0.36326
1760.77935	0.37174
1758.85078	0.37866
1756.92222	0.38553
1754.99365	0.39297
1753.06509	0.40066
1751.13652	0.41181
1749.20796	0.42506
1747.27939	0.43512
1745.35083	0.44262
1743.42227	0.45134
1741.49370	0.46184
1739.56514	0.47425
1737.63657	0.48655
1735.70801	0.49890
1733.77944	0.51808
1731.85088	0.53712
1729.92231	0.54966
1727.99375	0.56281
1726.06519	0.57847
1724.13662	0.59717
1722.20806	0.61804
1720.27949	0.63890
1718.35093	0.66563
1716.42236	0.70134
1714.49380	0.72920
1712.56523	0.74995
1710.63667	0.77222
1708.70811	0.79873
1706.77954	0.83034
1704.85098	0.86702
1702.92241	0.89871
1700.99385	0.93130
1699.06528	0.98002
1697.13672	1.02267
1695.20815	1.06253
1693.27959	1.10039
1691.35103	1.13298
1689.42246	1.17302
1687.49390	1.21600
1685.56533	1.25912
1683.63677	1.32304
1681.70820	1.38400
1679.77964	1.42169
1677.85107	1.45937
1675.92251	1.50477
1673.99395	1.56071
1672.06538	1.61049
1670.13682	1.65982
1668.20825	1.72036
1666.27969	1.76773
1664.35112	1.81029
1662.42256	1.86517
1660.49399	1.92538
1658.56543	1.97268
1656.63687	2.01340
1654.70830	2.05425
1652.77974	2.11453
1650.85117	2.16482
1648.92261	2.18389
1646.99404	2.21108
1645.06548	2.23820
1643.13691	2.25451
1641.20835	2.26515
1639.27979	2.27753
1637.35122	2.28948
1635.42266	2.29408
1633.49409	2.28423
1631.56553	2.26799
1629.63696	2.25172
1627.70840	2.22581
1625.77983	2.19389
1623.85127	2.15338
1621.92271	2.10451
1619.99414	2.06146
1618.06558	2.02098
1616.13701	1.96108
1614.20845	1.89449
1612.27988	1.84301
1610.35132	1.79287
1608.42275	1.73954
1606.49419	1.68530
1604.56562	1.63459
1602.63706	1.58601
1600.70850	1.53820
1598.77993	1.49402
1596.85137	1.45328
1594.92280	1.41405
1592.99424	1.37562
1591.06567	1.34018
1589.13711	1.30701
1587.20854	1.27584
1585.27998	1.24705
1583.35142	1.22038
1581.42285	1.19610
1579.49429	1.17602
1577.56572	1.15959
1575.63716	1.13854
1573.70859	1.11646
1571.78003	1.10186
1569.85146	1.08858
1567.92290	1.07223
1565.99434	1.05845
1564.06577	1.04834
1562.13721	1.04180
1560.20864	1.04092
1558.28008	1.03934
1556.35151	1.02871
1554.42295	1.01925
1552.49438	1.01177
1550.56582	1.00500
1548.63726	0.99760
1546.70869	0.99053
1544.78013	0.98473
1542.85156	0.97900
1540.92300	0.96902
1538.99443	0.94518
1537.06587	0.92262
1535.13730	0.90960
1533.20874	0.89603
1531.28018	0.87990
1529.35161	0.86789
1527.42305	0.85882
1525.49448	0.84995
1523.56592	0.84246
1521.63735	0.83551
1519.70879	0.82573
1517.78022	0.81598
1515.85166	0.80530
1513.92310	0.79374
1511.99453	0.78512
1510.06597	0.78067
1508.13740	0.77954
1506.20884	0.77060
1504.28027	0.75385
1502.35171	0.74413
1500.42314	0.73917
1498.49458	0.73587
1496.56602	0.73072
1494.63745	0.72306
1492.70889	0.71761
1490.78032	0.71587
1488.85176	0.71383
1486.92319	0.70749
1484.99463	0.70044
1483.06606	0.69587
1481.13750	0.69312
1479.20894	0.69108
1477.28037	0.69047
1475.35181	0.69175
1473.42324	0.69330
1471.49468	0.69049
1469.56611	0.68411
1467.63755	0.67981
1465.70898	0.67824
1463.78042	0.67661
1461.85186	0.67467
1459.92329	0.67559
1457.99473	0.67955
1456.06616	0.67923
1454.13760	0.67242
1452.20903	0.66686
1450.28047	0.66361
1448.35190	0.66162
1446.42334	0.65892
1444.49478	0.65553
1442.56621	0.65285
1440.63765	0.65096
1438.70908	0.65008
1436.78052	0.64959
1434.85195	0.64712
1432.92339	0.64401
1430.99482	0.64244
1429.06626	0.64138
1427.13770	0.64013
1425.20913	0.63996
1423.28057	0.64060
1421.35200	0.64115
1419.42344	0.64226
1417.49487	0.64174
1415.56631	0.63829
1413.63774	0.63532
1411.70918	0.63392
1409.78062	0.63331
1407.85205	0.63328
1405.92349	0.63412
1403.99492	0.63451
1402.06636	0.63369
1400.13779	0.63326
1398.20923	0.63322
1396.28066	0.63213
1394.35210	0.62899
1392.42354	0.62416
1390.49497	0.62019
1388.56641	0.61795
1386.63784	0.61541
1384.70928	0.61127
1382.78071	0.60717
1380.85215	0.60407
1378.92358	0.60183
1376.99502	0.60060
1375.06646	0.60023
1373.13789	0.59911
1371.20933	0.59706
1369.28076	0.59569
1367.35220	0.59469
1365.42363	0.59379
1363.49507	0.59367
1361.56650	0.59288
1359.63794	0.59039
1357.70937	0.58808
1355.78081	0.58680
1353.85225	0.58582
1351.92368	0.58480
1349.99512	0.58399
1348.06655	0.58321
1346.13799	0.58221
1344.20942	0.58132
1342.28086	0.58125
1340.35229	0.58210
1338.42373	0.58215
1336.49517	0.58037
1334.56660	0.57829
1332.63804	0.57710
1330.70947	0.57666
1328.78091	0.57653
1326.85234	0.57648
1324.92378	0.57649
1322.99521	0.57662
1321.06665	0.57705
1319.13809	0.57768
1317.20952	0.57779
1315.28096	0.57724
1313.35239	0.57647
1311.42383	0.57550
1309.49526	0.57436
1307.56670	0.57337
1305.63813	0.57256
1303.70957	0.57176
1301.78101	0.57088
1299.85244	0.56987
1297.92388	0.56880
1295.99531	0.56774
1294.06675	0.56663
1292.13818	0.56547
1290.20962	0.56435
1288.28105	0.56333
1286.35249	0.56238
1284.42393	0.56147
1282.49536	0.56063
1280.56680	0.55984
1278.63823	0.55898
1276.70967	0.55812
1274.78110	0.55739
1272.85254	0.55680
1270.92397	0.55620
1268.99541	0.55545
1267.06685	0.55474
1265.13828	0.55415
1263.20972	0.55359
1261.28115	0.55310
1259.35259	0.55263
1257.42402	0.55209
1255.49546	0.55166
1253.56689	0.55155
1251.63833	0.55168
1249.70977	0.55180
1247.78120	0.55177
1245.85264	0.55163
1243.92407	0.55124
1241.99551	0.55043
1240.06694	0.54933
1238.13838	0.54820
1236.20981	0.54709
1234.28125	0.54583
1232.35269	0.54440
1230.42412	0.54296
1228.49556	0.54164
1226.56699	0.54040
1224.63843	0.53923
1222.70986	0.53810
1220.78130	0.53702
1218.85273	0.53595
1216.92417	0.53492
1214.99561	0.53401
1213.06704	0.53312
1211.13848	0.53218
1209.20991	0.53139
1207.28135	0.53079
1205.35278	0.53021
1203.42422	0.52958
1201.49565	0.52895
1199.56709	0.52828
1197.63853	0.52752
1195.70996	0.52676
1193.78140	0.52625
1191.85283	0.52601
1189.92427	0.52576
1187.99570	0.52541
1186.06714	0.52514
1184.13857	0.52502
1182.21001	0.52521
1180.28145	0.52582
1178.35288	0.52658
1176.42432	0.52725
1174.49575	0.52777
1172.56719	0.52817
1170.63862	0.52854
1168.71006	0.52887
1166.78149	0.52890
1164.85293	0.52870
1162.92437	0.52858
1160.99580	0.52847
1159.06724	0.52809
1157.13867	0.52743
1155.21011	0.52646
1153.28154	0.52509
1151.35298	0.52329
1149.42441	0.52125
1147.49585	0.51908
1145.56729	0.51672
1143.63872	0.51431
1141.71016	0.51193
1139.78159	0.50960
1137.85303	0.50764
1135.92446	0.50619
1133.99590	0.50518
1132.06733	0.50457
1130.13877	0.50399
1128.21021	0.50306
1126.28164	0.50193
1124.35308	0.50097
1122.42451	0.50022
1120.49595	0.49950
1118.56738	0.49886
1116.63882	0.49847
1114.71025	0.49828
1112.78169	0.49838
1110.85312	0.49874
1108.92456	0.49921
1106.99600	0.49998
1105.06743	0.50112
1103.13887	0.50255
1101.21030	0.50443
1099.28174	0.50670
1097.35317	0.50911
1095.42461	0.51168
1093.49604	0.51483
1091.56748	0.51889
1089.63892	0.52382
1087.71035	0.52951
1085.78179	0.53597
1083.85322	0.54291
1081.92466	0.54966
1079.99609	0.55523
1078.06753	0.55857
1076.13896	0.55918
1074.21040	0.55716
1072.28184	0.55289
1070.35327	0.54702
1068.42471	0.54029
1066.49614	0.53346
1064.56758	0.52710
1062.63901	0.52137
1060.71045	0.51621
1058.78188	0.51162
1056.85332	0.50763
1054.92476	0.50420
1052.99619	0.50106
1051.06763	0.49813
1049.13906	0.49566
1047.21050	0.49381
1045.28193	0.49248
1043.35337	0.49150
1041.42480	0.49061
1039.49624	0.48975
1037.56768	0.48910
1035.63911	0.48869
1033.71055	0.48838
1031.78198	0.48816
1029.85342	0.48794
1027.92485	0.48772
1025.99629	0.48762
1024.06772	0.48774
1022.13916	0.48809
1020.21060	0.48860
1018.28203	0.48913
1016.35347	0.48977
1014.42490	0.49064
1012.49634	0.49156
1010.56777	0.49256
1008.63921	0.49387
1006.71064	0.49556
1004.78208	0.49754
1002.85352	0.49977
1000.92495	0.50235
998.99639	0.50540
997.06782	0.50901
995.13926	0.51302
993.21069	0.51697
991.28213	0.52044
989.35356	0.52314
987.42500	0.52481
985.49644	0.52559
983.56787	0.52615
981.63931	0.52706
979.71074	0.52842
977.78218	0.53018
975.85361	0.53237
973.92505	0.53510
971.99648	0.53832
970.06792	0.54191
968.13936	0.54588
966.21079	0.55017
964.28223	0.55459
962.35366	0.55925
960.42510	0.56439
958.49653	0.56989
956.56797	0.57563
954.63940	0.58160
952.71084	0.58774
950.78228	0.59384
948.85371	0.59991
946.92515	0.60640
944.99658	0.61317
943.06802	0.61959
941.13945	0.62556
939.21089	0.63154
937.28232	0.63776
935.35376	0.64376
933.42520	0.64920
931.49663	0.65426
929.56807	0.65958
927.63950	0.66576
925.71094	0.67225
923.78237	0.67845
921.85381	0.68489
919.92524	0.69166
917.99668	0.69854
916.06812	0.70553
914.13955	0.71249
912.21099	0.72003
910.28242	0.72847
908.35386	0.73708
906.42529	0.74568
904.49673	0.75492
902.56816	0.76449
900.63960	0.77381
898.71104	0.78359
896.78247	0.79348
894.85391	0.80235
892.92534	0.81117
890.99678	0.82105
889.06821	0.83135
887.13965	0.84184
885.21108	0.85377
883.28252	0.86738
881.35396	0.88055
879.42539	0.89188
877.49683	0.90271
875.56826	0.91428
873.63970	0.92622
871.71113	0.93773
869.78257	0.94872
867.85400	0.95982
865.92544	0.97140
863.99687	0.98367
862.06831	0.99587
860.13975	1.00665
858.21118	1.01626
856.28262	1.02608
854.35405	1.03690
852.42549	1.04861
850.49692	1.06156
848.56836	1.07542
846.63979	1.08716
844.71123	1.09647
842.78267	1.10740
840.85410	1.12039
838.92554	1.13199
836.99697	1.14274
835.06841	1.15612
833.13984	1.17144
831.21128	1.18518
829.28271	1.19692
827.35415	1.20693
825.42559	1.21272
823.49702	1.21595
821.56846	1.22157
819.63989	1.22887
817.71133	1.23578
815.78276	1.25204
813.85420	1.28206
811.92563	1.30197
809.99707	1.30283
808.06851	1.31190
806.13994	1.33322
804.21138	1.34194
802.28281	1.33866
800.35425	1.34406
798.42568	1.34539
796.49712	1.33383
794.56855	1.35219
792.63999	1.41490
790.71143	1.48112
788.78286	1.49834
786.85430	1.46547
784.92573	1.44380
782.99717	1.43444
781.06860	1.42641
779.14004	1.44948
777.21147	1.47028
775.28291	1.41374
773.35435	1.33818
771.42578	1.33311
769.49722	1.39927
767.56865	1.49053
765.64009	1.57323
763.71152	1.63158
761.78296	1.58535
759.85439	1.47880
757.92583	1.42051
755.99727	1.45416
754.06870	1.62996
752.14014	1.65366
750.21157	1.32199
748.28301	1.12199
746.35444	1.09282
744.42588	1.18466
742.49731	1.30145
740.56875	1.26705
738.64019	1.12980
736.71162	1.06770
734.78306	1.09055
732.85449	1.04339
730.92593	0.89028
728.99736	0.79345
727.06880	0.70439
725.14023	0.56416
723.21167	0.55648
721.28311	0.62989
719.35454	0.37039
717.42598	0.16930
715.49741	0.12612
713.56885	0.13593
711.64028	0.26840
709.71172	0.47893
707.78315	0.33763
705.85459	0.39859
703.92603	0.55042
701.99746	0.53931
700.06890	0.49652
698.14033	0.54907
696.21177	0.61301
694.28320	0.73035
692.35464	1.18727
690.42607	1.50554
688.49751	0.64979
686.56895	0.36940
684.64038	0.33299
682.71182	0.49859
680.78325	0.65608
678.85469	0.50030
676.92612	0.37516
674.99756	0.42633
673.06899	0.53756
671.14043	0.49081
669.21187	0.39793
667.28330	0.29820
665.35474	0.22451
663.42617	0.21052
661.49761	0.21452
659.56904	0.21907
657.64048	0.28735
655.71191	0.43643
653.78335	0.47316
651.85479	0.43453
649.92622	0.42643
647.99766	0.37821
646.06909	0.36142
644.14053	0.42493
642.21196	0.45894
640.28340	0.40455
638.35483	0.35357
636.42627	0.25532
634.49771	0.21968
632.56914	0.35448
630.64058	0.53592
628.71201	0.58782
626.78345	0.50878
624.85488	0.37252
622.92632	0.29690
620.99775	0.31461
619.06919	0.28714
617.14062	0.19124
615.21206	0.14690
613.28350	0.22099
611.35493	0.36671
609.42637	0.39830
607.49780	0.34625
605.56924	0.36925
603.64067	0.50273
601.71211	0.58608
599.78354	0.50836
597.85498	0.45641
595.92642	0.39473
593.99785	0.30251
592.06929	0.34010
590.14072	0.56956
588.21216	3.52927
586.28359	3.51770
584.35503	1.15632
582.42646	0.44784
580.49790	0.37115
578.56934	0.40887
576.64077	0.51330
574.71221	0.64328
572.78364	0.42228
570.85508	0.24662
568.92651	0.17953
566.99795	0.17410
565.06938	0.23291
563.14082	0.33220
561.21226	0.39574
559.28369	0.32829
557.35513	0.23772
555.42656	0.21648
553.49800	0.28025
551.56943	0.36335
549.64087	0.42742
547.71230	0.49255
545.78374	0.43667
543.85518	0.31278
541.92661	0.27092
539.99805	0.30991
538.06948	0.32463
536.14092	0.26720
534.21235	0.22509
532.28379	0.21012
530.35522	0.22632
528.42666	0.29868
526.49810	0.38993
524.56953	0.36340
522.64097	0.30838
520.71240	0.30653
518.78384	0.28979
516.85527	0.25022
514.92671	0.27525
512.99814	0.38014
511.06958	0.47271
509.14102	0.42584
507.21245	0.33880
505.28389	0.31992
503.35532	0.32039
501.42676	0.23021
499.49819	0.15246
