3997.91411	0.06860
3995.98555	0.06896
3994.05698	0.06865
3992.12842	0.06833
3990.19985	0.06854
3988.27129	0.06887
3986.34272	0.06909
3984.41416	0.06932
3982.48560	0.06967
3980.55703	0.07033
3978.62847	0.07084
3976.69990	0.07071
3974.77134	0.07030
3972.84277	0.07012
3970.91421	0.07041
3968.98564	0.07094
3967.05708	0.07152
3965.12852	0.07201
3963.19995	0.07216
3961.27139	0.07187
3959.34282	0.07152
3957.41426	0.07171
3955.48569	0.07219
3953.55713	0.07194
3951.62856	0.07103
3949.70000	0.07036
3947.77144	0.07042
3945.84287	0.07091
3943.91431	0.07115
3941.98574	0.07117
3940.05718	0.07127
3938.12861	0.07133
3936.20005	0.07117
3934.27148	0.07065
3932.34292	0.06992
3930.41436	0.06965
3928.48579	0.07008
3926.55723	0.07029
3924.62866	0.06988
3922.70010	0.06966
3920.77153	0.06995
3918.84297	0.07008
3916.91440	0.06997
3914.98584	0.07027
3913.05728	0.07084
3911.12871	0.07101
3909.20015	0.07083
3907.27158	0.07018
3905.34302	0.06846
3903.41445	0.06643
3901.48589	0.06585
3899.55732	0.06674
3897.62876	0.06818
3895.70020	0.06937
3893.77163	0.06949
3891.84307	0.06872
3889.91450	0.06865
3887.98594	0.06915
3886.05737	0.06895
3884.12881	0.06879
3882.20024	0.06893
3880.27168	0.06885
3878.34312	0.06933
3876.41455	0.06987
3874.48599	0.06925
3872.55742	0.06795
3870.62886	0.06727
3868.70029	0.06792
3866.77173	0.06887
3864.84316	0.06892
3862.91460	0.06921
3860.98604	0.07086
3859.05747	0.07237
3857.12891	0.07251
3855.20034	0.07115
3853.27178	0.06897
3851.34321	0.06972
3849.41465	0.07295
3847.48608	0.07501
3845.55752	0.07563
3843.62896	0.07500
3841.70039	0.07375
3839.77183	0.07294
3837.84326	0.07328
3835.91470	0.07493
3833.98613	0.07687
3832.05757	0.07820
3830.12900	0.07914
3828.20044	0.08001
3826.27187	0.08080
3824.34331	0.08134
3822.41475	0.08085
3820.48618	0.07992
3818.55762	0.08067
3816.62905	0.08231
3814.70049	0.08434
3812.77192	0.08696
3810.84336	0.08885
3808.91479	0.08947
3806.98623	0.08951
3805.05767	0.09015
3803.12910	0.09063
3801.20054	0.09076
3799.27197	0.09223
3797.34341	0.09436
3795.41484	0.09664
3793.48628	0.09909
3791.55771	0.10087
3789.62915	0.10228
3787.70059	0.10377
3785.77202	0.10501
3783.84346	0.10606
3781.91489	0.10726
3779.98633	0.10844
3778.05776	0.11021
3776.12920	0.11270
3774.20063	0.11466
3772.27207	0.11575
3770.34351	0.11667
3768.41494	0.11832
3766.48638	0.12042
3764.55781	0.12259
3762.62925	0.12479
3760.70068	0.12629
3758.77212	0.12755
3756.84355	0.12970
3754.91499	0.13168
3752.98643	0.13230
3751.05786	0.13224
3749.12930	0.13376
3747.20073	0.13679
3745.27217	0.13922
3743.34360	0.14210
3741.41504	0.14545
3739.48647	0.14717
3737.55791	0.14719
3735.62935	0.14673
3733.70078	0.14864
3731.77222	0.15326
3729.84365	0.15775
3727.91509	0.16141
3725.98652	0.16592
3724.05796	0.17298
3722.12939	0.18236
3720.20083	0.19358
3718.27227	0.20608
3716.34370	0.21843
3714.41514	0.22832
3712.48657	0.23533
3710.55801	0.24283
3708.62944	0.25397
3706.70088	0.26645
3704.77231	0.27863
3702.84375	0.29209
3700.91519	0.30965
3698.98662	0.32966
3697.05806	0.34879
3695.12949	0.36842
3693.20093	0.38839
3691.27236	0.40910
3689.34380	0.43664
3687.41523	0.47372
3685.48667	0.50847
3683.55811	0.53792
3681.62954	0.56771
3679.70098	0.59966
3677.77241	0.63196
3675.84385	0.66900
3673.91528	0.72069
3671.98672	0.76658
3670.05815	0.80704
3668.12959	0.86185
3666.20103	0.91469
3664.27246	0.95860
3662.34390	1.00330
3660.41533	1.05065
3658.48677	1.09717
3656.55820	1.14613
3654.62964	1.20053
3652.70107	1.24662
3650.77251	1.28538
3648.84395	1.33719
3646.91538	1.40397
3644.98682	1.45776
3643.05825	1.49955
3641.12969	1.54051
3639.20112	1.58468
3637.27256	1.62839
3635.34399	1.66968
3633.41543	1.71034
3631.48687	1.74816
3629.55830	1.78528
3627.62974	1.83445
3625.70117	1.88526
3623.77261	1.92259
3621.84404	1.95716
3619.91548	1.99588
3617.98691	2.04356
3616.05835	2.09024
3614.12979	2.12830
3612.20122	2.16721
3610.27266	2.20604
3608.34409	2.24350
3606.41553	2.28349
3604.48696	2.32308
3602.55840	2.35914
3600.62983	2.39677
3598.70127	2.43791
3596.77271	2.47909
3594.84414	2.51985
3592.91558	2.56095
3590.98701	2.60039
3589.05845	2.63782
3587.12988	2.68215
3585.20132	2.73193
3583.27275	2.77591
3581.34419	2.81610
3579.41562	2.85794
3577.48706	2.90244
3575.55850	2.94653
3573.62993	2.98918
3571.70137	3.03018
3569.77280	3.06970
3567.84424	3.11150
3565.91567	3.16353
3563.98711	3.21628
3562.05854	3.26051
3560.12998	3.30312
3558.20142	3.34596
3556.27285	3.38866
3554.34429	3.43169
3552.41572	3.47710
3550.48716	3.52482
3548.55859	3.57268
3546.63003	3.61805
3544.70146	3.66348
3542.77290	3.71208
3540.84434	3.76056
3538.91577	3.80684
3536.98721	3.85269
3535.05864	3.90098
3533.13008	3.94939
3531.20151	3.99717
3529.27295	4.04534
3527.34438	4.09467
3525.41582	4.14426
3523.48726	4.19288
3521.55869	4.24236
3519.63013	4.29221
3517.70156	4.34243
3515.77300	4.39081
3513.84443	4.43552
3511.91587	4.47822
3509.98730	4.52185
3508.05874	4.57022
3506.13018	4.62489
3504.20161	4.67925
3502.27305	4.72699
3500.34448	4.77298
3498.41592	4.82015
3496.48735	4.87048
3494.55879	4.92753
3492.63022	4.98267
3490.70166	5.02914
3488.77310	5.07111
3486.84453	5.11227
3484.91597	5.15938
3482.98740	5.21072
3481.05884	5.25534
3479.13027	5.29847
3477.20171	5.34865
3475.27314	5.39827
3473.34458	5.44154
3471.41602	5.48267
3469.48745	5.52603
3467.55889	5.57435
3465.63032	5.63223
3463.70176	5.69896
3461.77319	5.75842
3459.84463	5.80556
3457.91606	5.85159
3455.98750	5.89942
3454.05894	5.94749
3452.13037	5.99829
3450.20181	6.05368
3448.27324	6.11061
3446.34468	6.16651
3444.41611	6.22129
3442.48755	6.28226
3440.55898	6.34364
3438.63042	6.38640
3436.70186	6.40255
3434.77329	6.41806
3432.84473	6.46990
3430.91616	6.54752
3428.98760	6.61867
3427.05903	6.67593
3425.13047	6.73361
3423.20190	6.79383
3421.27334	6.84473
3419.34478	6.87833
3417.41621	6.90752
3415.48765	6.94106
3413.55908	6.97811
3411.63052	7.02325
3409.70195	7.06496
3407.77339	7.10752
3405.84482	7.14838
3403.91626	7.19049
3401.98770	7.25435
3400.05913	7.34377
3398.13057	7.42272
3396.20200	7.45261
3394.27344	7.45802
3392.34487	7.46669
3390.41631	7.49907
3388.48774	7.53969
3386.55918	7.56758
3384.63062	7.59831
3382.70205	7.66358
3380.77349	7.73219
3378.84492	7.75276
3376.91636	7.77723
3374.98779	7.79721
3373.05923	7.77625
3371.13066	7.78042
3369.20210	7.85029
3367.27354	7.89079
3365.34497	7.86182
3363.41641	7.84958
3361.48784	7.88629
3359.55928	7.93998
3357.63071	7.98017
3355.70215	8.04619
3353.77358	8.13667
3351.84502	8.14798
3349.91646	8.05545
3347.98789	8.02108
3346.05933	8.08203
3344.13076	8.10762
3342.20220	8.06715
3340.27363	8.02463
3338.34507	8.04785
3336.41650	8.09723
3334.48794	8.09393
3332.55937	8.05557
3330.63081	8.06860
3328.70225	8.13448
3326.77368	8.15794
3324.84512	8.12658
3322.91655	8.11577
3320.98799	8.17248
3319.05942	8.23364
3317.13086	8.26091
3315.20229	8.27892
3313.27373	8.28564
3311.34517	8.26952
3309.41660	8.25328
3307.48804	8.22119
3305.55947	8.14425
3303.63091	8.13117
3301.70234	8.22366
3299.77378	8.29930
3297.84521	8.28144
3295.91665	8.26895
3293.98809	8.31107
3292.05952	8.33181
3290.13096	8.29104
3288.20239	8.23249
3286.27383	8.18458
3284.34526	8.16998
3282.41670	8.24025
3280.48813	8.31799
3278.55957	8.32886
3276.63101	8.31658
3274.70244	8.29347
3272.77388	8.25625
3270.84531	8.22380
3268.91675	8.23884
3266.98818	8.28214
3265.05962	8.30018
3263.13105	8.31117
3261.20249	8.33899
3259.27393	8.35493
3257.34536	8.35649
3255.41680	8.34466
3253.48823	8.32857
3251.55967	8.31234
3249.63110	8.30274
3247.70254	8.39275
3245.77397	8.52851
3243.84541	8.49427
3241.91685	8.40939
3239.98828	8.48018
3238.05972	8.52058
3236.13115	8.35510
3234.20259	8.18450
3232.27402	8.11942
3230.34546	8.12105
3228.41689	8.16732
3226.48833	8.18771
3224.55977	8.10063
3222.63120	8.02893
3220.70264	8.04954
3218.77407	8.08471
3216.84551	8.13088
3214.91694	8.18504
3212.98838	8.17155
3211.05981	8.10180
3209.13125	8.05085
3207.20269	8.04973
3205.27412	8.04307
3203.34556	7.98752
3201.41699	7.93321
3199.48843	7.88904
3197.55986	7.84383
3195.63130	7.83191
3193.70273	7.84440
3191.77417	7.82184
3189.84561	7.75588
3187.91704	7.68499
3185.98848	7.62520
3184.05991	7.54687
3182.13135	7.43762
3180.20278	7.37440
3178.27422	7.38014
3176.34565	7.38620
3174.41709	7.33967
3172.48853	7.24087
3170.55996	7.14620
3168.63140	7.08651
3166.70283	7.04525
3164.77427	7.00125
3162.84570	6.92862
3160.91714	6.83638
3158.98857	6.76309
3157.06001	6.70178
3155.13145	6.62335
3153.20288	6.54227
3151.27432	6.49221
3149.34575	6.46277
3147.41719	6.40836
3145.48862	6.32172
3143.56006	6.23103
3141.63149	6.15285
3139.70293	6.08207
3137.77437	6.01380
3135.84580	5.95738
3133.91724	5.90067
3131.98867	5.82118
3130.06011	5.73331
3128.13154	5.65314
3126.20298	5.57531
3124.27441	5.49615
3122.34585	5.41566
3120.41729	5.34383
3118.48872	5.28320
3116.56016	5.21552
3114.63159	5.13767
3112.70303	5.06354
3110.77446	4.99439
3108.84590	4.92632
3106.91733	4.86099
3104.98877	4.79670
3103.06021	4.72787
3101.13164	4.65282
3099.20308	4.58046
3097.27451	4.51637
3095.34595	4.45164
3093.41738	4.38245
3091.48882	4.31457
3089.56025	4.24956
3087.63169	4.18558
3085.70312	4.12132
3083.77456	4.05646
3081.84600	3.99223
3079.91743	3.92903
3077.98887	3.86572
3076.06030	3.80300
3074.13174	3.74335
3072.20317	3.68501
3070.27461	3.62469
3068.34604	3.56392
3066.41748	3.50527
3064.48892	3.44871
3062.56035	3.39210
3060.63179	3.33546
3058.70322	3.28065
3056.77466	3.22599
3054.84609	3.17108
3052.91753	3.11815
3050.98896	3.06601
3049.06040	3.01322
3047.13184	2.96080
3045.20327	2.90982
3043.27471	2.86064
3041.34614	2.81217
3039.41758	2.76380
3037.48901	2.71683
3035.56045	2.67102
3033.63188	2.62447
3031.70332	2.57750
3029.77476	2.53206
3027.84619	2.48842
3025.91763	2.44523
3023.98906	2.40201
3022.06050	2.35942
3020.13193	2.31781
3018.20337	2.27713
3016.27480	2.23691
3014.34624	2.19665
3012.41768	2.15673
3010.48911	2.11791
3008.56055	2.08017
3006.63198	2.04293
3004.70342	2.00615
3002.77485	1.97015
3000.84629	1.93512
2998.91772	1.90061
2996.98916	1.86610
2995.06060	1.83195
2993.13203	1.79863
2991.20347	1.76611
2989.27490	1.73380
2987.34634	1.70173
2985.41777	1.67041
2983.48921	1.63954
2981.56064	1.60915
2979.63208	1.57958
2977.70352	1.55031
2975.77495	1.52092
2973.84639	1.49161
2971.91782	1.46261
2969.98926	1.43409
2968.06069	1.40612
2966.13213	1.37859
2964.20356	1.35151
2962.27500	1.32505
2960.34644	1.29907
2958.41787	1.27360
2956.48931	1.24919
2954.56074	1.22579
2952.63218	1.20266
2950.70361	1.17992
2948.77505	1.15787
2946.84648	1.13606
2944.91792	1.11417
2942.98936	1.09240
2941.06079	1.07086
2939.13223	1.04917
2937.20366	1.02727
2935.27510	1.00569
2933.34653	0.98498
2931.41797	0.96535
2929.48940	0.94601
2927.56084	0.92634
2925.63228	0.90740
2923.70371	0.89010
2921.77515	0.87399
2919.84658	0.85863
2917.91802	0.84368
2915.98945	0.82924
2914.06089	0.81559
2912.13232	0.80216
2910.20376	0.78875
2908.27520	0.77562
2906.34663	0.76270
2904.41807	0.74982
2902.48950	0.73721
2900.56094	0.72483
2898.63237	0.71257
2896.70381	0.70074
2894.77524	0.68924
2892.84668	0.67756
2890.91812	0.66584
2888.98955	0.65454
2887.06099	0.64364
2885.13242	0.63282
2883.20386	0.62194
2881.27529	0.61107
2879.34673	0.60020
2877.41816	0.58934
2875.48960	0.57864
2873.56104	0.56819
2871.63247	0.55795
2869.70391	0.54788
2867.77534	0.53797
2865.84678	0.52814
2863.91821	0.51820
2861.98965	0.50825
2860.06108	0.49855
2858.13252	0.48907
2856.20396	0.47977
2854.27539	0.47086
2852.34683	0.46276
2850.41826	0.45563
2848.48970	0.44911
2846.56113	0.44297
2844.63257	0.43724
2842.70400	0.43173
2840.77544	0.42628
2838.84687	0.42103
2836.91831	0.41594
2834.98975	0.41070
2833.06118	0.40530
2831.13262	0.39995
2829.20405	0.39452
2827.27549	0.38890
2825.34692	0.38331
2823.41836	0.37777
2821.48979	0.37209
2819.56123	0.36630
2817.63267	0.36063
2815.70410	0.35525
2813.77554	0.35021
2811.84697	0.34548
2809.91841	0.34077
2807.98984	0.33574
2806.06128	0.33052
2804.13271	0.32545
2802.20415	0.32063
2800.27559	0.31591
2798.34702	0.31133
2796.41846	0.30702
2794.48989	0.30286
2792.56133	0.29865
2790.63276	0.29434
2788.70420	0.29020
2786.77563	0.28638
2784.84707	0.28265
2782.91851	0.27876
2780.98994	0.27477
2779.06138	0.27095
2777.13281	0.26727
2775.20425	0.26356
2773.27568	0.25997
2771.34712	0.25664
2769.41855	0.25343
2767.48999	0.25019
2765.56143	0.24689
2763.63286	0.24367
2761.70430	0.24057
2759.77573	0.23759
2757.84717	0.23480
2755.91860	0.23213
2753.99004	0.22940
2752.06147	0.22670
2750.13291	0.22407
2748.20435	0.22136
2746.27578	0.21867
2744.34722	0.21620
2742.41865	0.21380
2740.49009	0.21130
2738.56152	0.20883
2736.63296	0.20653
2734.70439	0.20435
2732.77583	0.20213
2730.84727	0.19989
2728.91870	0.19772
2726.99014	0.19573
2725.06157	0.19379
2723.13301	0.19176
2721.20444	0.18992
2719.27588	0.18825
2717.34731	0.18642
2715.41875	0.18446
2713.49019	0.18265
2711.56162	0.18116
2709.63306	0.17979
2707.70449	0.17827
2705.77593	0.17658
2703.84736	0.17499
2701.91880	0.17363
2699.99023	0.17225
2698.06167	0.17070
2696.13311	0.16922
2694.20454	0.16796
2692.27598	0.16683
2690.34741	0.16568
2688.41885	0.16445
2686.49028	0.16329
2684.56172	0.16224
2682.63315	0.16108
2680.70459	0.15984
2678.77603	0.15876
2676.84746	0.15776
2674.91890	0.15681
2672.99033	0.15585
2671.06177	0.15486
2669.13320	0.15398
2667.20464	0.15332
2665.27607	0.15266
2663.34751	0.15177
2661.41895	0.15084
2659.49038	0.15013
2657.56182	0.14961
2655.63325	0.14913
2653.70469	0.14850
2651.77612	0.14788
2649.84756	0.14749
2647.91899	0.14709
2645.99043	0.14648
2644.06187	0.14587
2642.13330	0.14530
2640.20474	0.14471
2638.27617	0.14435
2636.34761	0.14429
2634.41904	0.14414
2632.49048	0.14372
2630.56191	0.14330
2628.63335	0.14308
2626.70479	0.14297
2624.77622	0.14281
2622.84766	0.14259
2620.91909	0.14232
2618.99053	0.14210
2617.06196	0.14200
2615.13340	0.14194
2613.20483	0.14184
2611.27627	0.14177
2609.34771	0.14175
2607.41914	0.14174
2605.49058	0.14175
2603.56201	0.14179
2601.63345	0.14187
2599.70488	0.14200
2597.77632	0.14218
2595.84775	0.14234
2593.91919	0.14251
2591.99062	0.14274
2590.06206	0.14294
2588.13350	0.14314
2586.20493	0.14349
2584.27637	0.14387
2582.34780	0.14418
2580.41924	0.14451
2578.49067	0.14488
2576.56211	0.14528
2574.63354	0.14568
2572.70498	0.14612
2570.77642	0.14661
2568.84785	0.14709
2566.91929	0.14754
2564.99072	0.14801
2563.06216	0.14848
2561.13359	0.14898
2559.20503	0.14946
2557.27646	0.14998
2555.34790	0.15072
2553.41934	0.15156
2551.49077	0.15218
2549.56221	0.15271
2547.63364	0.15330
2545.70508	0.15395
2543.77651	0.15458
2541.84795	0.15511
2539.91938	0.15568
2537.99082	0.15640
2536.06226	0.15715
2534.13369	0.15799
2532.20513	0.15891
2530.27656	0.15973
2528.34800	0.16038
2526.41943	0.16111
2524.49087	0.16207
2522.56230	0.16308
2520.63374	0.16398
2518.70518	0.16484
2516.77661	0.16564
2514.84805	0.16632
2512.91948	0.16700
2510.99092	0.16785
2509.06235	0.16881
2507.13379	0.16971
2505.20522	0.17057
2503.27666	0.17152
2501.34810	0.17252
2499.41953	0.17346
2497.49097	0.17431
2495.56240	0.17522
2493.63384	0.17619
2491.70527	0.17704
2489.77671	0.17784
2487.84814	0.17879
2485.91958	0.17982
2483.99102	0.18076
2482.06245	0.18169
2480.13389	0.18276
2478.20532	0.18384
2476.27676	0.18478
2474.34819	0.18565
2472.41963	0.18660
2470.49106	0.18762
2468.56250	0.18864
2466.63394	0.18971
2464.70537	0.19082
2462.77681	0.19179
2460.84824	0.19271
2458.91968	0.19370
2456.99111	0.19472
2455.06255	0.19579
2453.13398	0.19694
2451.20542	0.19805
2449.27686	0.19897
2447.34829	0.19987
2445.41973	0.20095
2443.49116	0.20217
2441.56260	0.20328
2439.63403	0.20423
2437.70547	0.20522
2435.77690	0.20636
2433.84834	0.20758
2431.91978	0.20874
2429.99121	0.20986
2428.06265	0.21101
2426.13408	0.21212
2424.20552	0.21317
2422.27695	0.21432
2420.34839	0.21566
2418.41982	0.21691
2416.49126	0.21793
2414.56270	0.21901
2412.63413	0.22027
2410.70557	0.22147
2408.77700	0.22260
2406.84844	0.22377
2404.91987	0.22495
2402.99131	0.22616
2401.06274	0.22753
2399.13418	0.22896
2397.20562	0.23024
2395.27705	0.23140
2393.34849	0.23252
2391.41992	0.23350
2389.49136	0.23421
2387.56279	0.23418
2385.63423	0.23221
2383.70566	0.22712
2381.77710	0.21863
2379.84854	0.20738
2377.91997	0.19406
2375.99141	0.17837
2374.06284	0.15942
2372.13428	0.13722
2370.20571	0.11292
2368.27715	0.08810
2366.34858	0.06516
2364.42002	0.04609
2362.49146	0.03209
2360.56289	0.02551
2358.63433	0.02814
2356.70576	0.04160
2354.77720	0.06633
2352.84863	0.09823
2350.92007	0.13001
2348.99150	0.14968
2347.06294	0.15082
2345.13437	0.13446
2343.20581	0.11252
2341.27725	0.10253
2339.34868	0.10517
2337.42012	0.11201
2335.49155	0.11880
2333.56299	0.12532
2331.63442	0.13146
2329.70586	0.13802
2327.77729	0.14629
2325.84873	0.15654
2323.92017	0.16800
2321.99160	0.18012
2320.06304	0.19300
2318.13447	0.20625
2316.20591	0.21840
2314.27734	0.22802
2312.34878	0.23524
2310.42021	0.24210
2308.49165	0.25019
2306.56309	0.25914
2304.63452	0.26763
2302.70596	0.27446
2300.77739	0.27979
2298.84883	0.28469
2296.92026	0.28957
2294.99170	0.29437
2293.06313	0.29929
2291.13457	0.30430
2289.20601	0.30915
2287.27744	0.31385
2285.34888	0.31832
2283.42031	0.32197
2281.49175	0.32438
2279.56318	0.32588
2277.63462	0.32714
2275.70605	0.32861
2273.77749	0.33039
2271.84893	0.33236
2269.92036	0.33440
2267.99180	0.33662
2266.06323	0.33906
2264.13467	0.34161
2262.20610	0.34424
2260.27754	0.34699
2258.34897	0.34972
2256.42041	0.35239
2254.49185	0.35517
2252.56328	0.35803
2250.63472	0.36082
2248.70615	0.36346
2246.77759	0.36594
2244.84902	0.36836
2242.92046	0.37083
2240.99189	0.37327
2239.06333	0.37560
2237.13477	0.37791
2235.20620	0.38027
2233.27764	0.38272
2231.34907	0.38516
2229.42051	0.38750
2227.49194	0.38976
2225.56338	0.39204
2223.63481	0.39434
2221.70625	0.39667
2219.77769	0.39895
2217.84912	0.40109
2215.92056	0.40323
2213.99199	0.40554
2212.06343	0.40783
2210.13486	0.40992
2208.20630	0.41201
2206.27773	0.41420
2204.34917	0.41638
2202.42061	0.41847
2200.49204	0.42046
2198.56348	0.42238
2196.63491	0.42438
2194.70635	0.42649
2192.77778	0.42852
2190.84922	0.43038
2188.92065	0.43218
2186.99209	0.43404
2185.06353	0.43594
2183.13496	0.43780
2181.20640	0.43966
2179.27783	0.44151
2177.34927	0.44322
2175.42070	0.44476
2173.49214	0.44619
2171.56357	0.44764
2169.63501	0.44912
2167.70645	0.45048
2165.77788	0.45179
2163.84932	0.45312
2161.92075	0.45431
2159.99219	0.45526
2158.06362	0.45613
2156.13506	0.45708
2154.20649	0.45804
2152.27793	0.45890
2150.34937	0.45971
2148.42080	0.46052
2146.49224	0.46127
2144.56367	0.46189
2142.63511	0.46231
2140.70654	0.46254
2138.77798	0.46272
2136.84941	0.46296
2134.92085	0.46316
2132.99229	0.46314
2131.06372	0.46301
2129.13516	0.46294
2127.20659	0.46285
2125.27803	0.46261
2123.34946	0.46226
2121.42090	0.46187
2119.49233	0.46139
2117.56377	0.46075
2115.63521	0.45999
2113.70664	0.45913
2111.77808	0.45816
2109.84951	0.45715
2107.92095	0.45622
2105.99238	0.45526
2104.06382	0.45417
2102.13525	0.45285
2100.20669	0.45141
2098.27812	0.44999
2096.34956	0.44853
2094.42100	0.44695
2092.49243	0.44541
2090.56387	0.44389
2088.63530	0.44217
2086.70674	0.44029
2084.77817	0.43842
2082.84961	0.43654
2080.92104	0.43458
2078.99248	0.43250
2077.06392	0.43034
2075.13535	0.42818
2073.20679	0.42599
2071.27822	0.42372
2069.34966	0.42146
2067.42109	0.41915
2065.49253	0.41670
2063.56396	0.41430
2061.63540	0.41204
2059.70684	0.40967
2057.77827	0.40710
2055.84971	0.40449
2053.92114	0.40193
2051.99258	0.39942
2050.06401	0.39685
2048.13545	0.39413
2046.20688	0.39137
2044.27832	0.38866
2042.34976	0.38591
2040.42119	0.38312
2038.49263	0.38037
2036.56406	0.37760
2034.63550	0.37488
2032.70693	0.37221
2030.77837	0.36945
2028.84980	0.36656
2026.92124	0.36367
2024.99268	0.36087
2023.06411	0.35813
2021.13555	0.35534
2019.20698	0.35247
2017.27842	0.34958
2015.34985	0.34680
2013.42129	0.34417
2011.49272	0.34151
2009.56416	0.33879
2007.63560	0.33601
2005.70703	0.33317
2003.77847	0.33035
2001.84990	0.32763
1999.92134	0.32494
1997.99277	0.32228
1996.06421	0.31963
1994.13564	0.31691
1992.20708	0.31418
1990.27852	0.31160
1988.34995	0.30918
1986.42139	0.30676
1984.49282	0.30440
1982.56426	0.30210
1980.63569	0.29981
1978.70713	0.29742
1976.77856	0.29498
1974.85000	0.29268
1972.92144	0.29049
1970.99287	0.28825
1969.06431	0.28595
1967.13574	0.28377
1965.20718	0.28176
1963.27861	0.27981
1961.35005	0.27790
1959.42148	0.27604
1957.49292	0.27412
1955.56436	0.27216
1953.63579	0.27036
1951.70723	0.26868
1949.77866	0.26702
1947.85010	0.26539
1945.92153	0.26375
1943.99297	0.26196
1942.06440	0.26016
1940.13584	0.25875
1938.20728	0.25765
1936.27871	0.25649
1934.35015	0.25519
1932.42158	0.25393
1930.49302	0.25276
1928.56445	0.25162
1926.63589	0.25036
1924.70732	0.24899
1922.77876	0.24774
1920.85020	0.24675
1918.92163	0.24579
1916.99307	0.24489
1915.06450	0.24426
1913.13594	0.24355
1911.20737	0.24259
1909.27881	0.24166
1907.35024	0.24105
1905.42168	0.24063
1903.49312	0.24020
1901.56455	0.23971
1899.63599	0.23913
1897.70742	0.23850
1895.77886	0.23786
1893.85029	0.23741
1891.92173	0.23700
1889.99316	0.23651
1888.06460	0.23624
1886.13604	0.23624
1884.20747	0.23619
1882.27891	0.23610
1880.35034	0.23605
1878.42178	0.23594
1876.49321	0.23584
1874.56465	0.23577
1872.63608	0.23561
1870.70752	0.23524
1868.77896	0.23503
1866.85039	0.23550
1864.92183	0.23627
1862.99326	0.23678
1861.06470	0.23703
1859.13613	0.23737
1857.20757	0.23782
1855.27900	0.23832
1853.35044	0.23876
1851.42187	0.23923
1849.49331	0.23961
1847.56475	0.23980
1845.63618	0.23993
1843.70762	0.24052
1841.77905	0.24187
1839.85049	0.24310
1837.92192	0.24408
1835.99336	0.24499
1834.06479	0.24595
1832.13623	0.24666
1830.20767	0.24732
1828.27910	0.24845
1826.35054	0.24977
1824.42197	0.25131
1822.49341	0.25308
1820.56484	0.25482
1818.63628	0.25633
1816.70771	0.25791
1814.77915	0.25951
1812.85059	0.26103
1810.92202	0.26273
1808.99346	0.26487
1807.06489	0.26718
1805.13633	0.26919
1803.20776	0.27111
1801.27920	0.27315
1799.35063	0.27575
1797.42207	0.27848
1795.49351	0.28085
1793.56494	0.28309
1791.63638	0.28633
1789.70781	0.29058
1787.77925	0.29415
1785.85068	0.29752
1783.92212	0.30108
1781.99355	0.30482
1780.06499	0.30886
1778.13643	0.31327
1776.20786	0.31722
1774.27930	0.32070
1772.35073	0.32540
1770.42217	0.33183
1768.49360	0.33834
1766.56504	0.34453
1764.63647	0.35026
1762.70791	0.35584
1760.77935	0.36290
1758.85078	0.37001
1756.92222	0.37713
1754.99365	0.38491
1753.06509	0.39176
1751.13652	0.39908
1749.20796	0.40830
1747.27939	0.41844
1745.35083	0.42818
1743.42227	0.43831
1741.49370	0.44906
1739.56514	0.46165
1737.63657	0.47455
1735.70801	0.48545
1733.77944	0.50090
1731.85088	0.52077
1729.92231	0.53791
1727.99375	0.55509
1726.06519	0.57305
1724.13662	0.59203
1722.20806	0.61223
1720.27949	0.63069
1718.35093	0.65123
1716.42236	0.68152
1714.49380	0.71269
1712.56523	0.73942
1710.63667	0.76479
1708.70811	0.79083
1706.77954	0.81946
1704.85098	0.85345
1702.92241	0.88426
1700.99385	0.91427
1699.06528	0.95801
1697.13672	0.99886
1695.20815	1.04139
1693.27959	1.08351
1691.35103	1.11679
1689.42246	1.15359
1687.49390	1.19151
1685.56533	1.22698
1683.63677	1.28077
1681.70820	1.33916
1679.77964	1.37836
1677.85107	1.41473
1675.92251	1.45512
1673.99395	1.50381
1672.06538	1.54720
1670.13682	1.58943
1668.20825	1.64405
1666.27969	1.68904
1664.35112	1.72593
1662.42256	1.76965
1660.49399	1.81812
1658.56543	1.85671
1656.63687	1.88865
1654.70830	1.91861
1652.77974	1.96879
1650.85117	2.02185
1648.92261	2.04435
1646.99404	2.07196
1645.06548	2.10651
1643.13691	2.13113
1641.20835	2.14562
1639.27979	2.15704
1637.35122	2.16341
1635.42266	2.16564
1633.49409	2.16662
1631.56553	2.16034
1629.63696	2.14755
1627.70840	2.12454
1625.77983	2.09750
1623.85127	2.06288
1621.92271	2.02049
1619.99414	1.98118
1618.06558	1.94064
1616.13701	1.88442
1614.20845	1.82765
1612.27988	1.78274
1610.35132	1.73460
1608.42275	1.68221
1606.49419	1.63019
1604.56562	1.58150
1602.63706	1.53450
1600.70850	1.48872
1598.77993	1.44586
1596.85137	1.40458
1594.92280	1.36440
1592.99424	1.32598
1591.06567	1.29052
1589.13711	1.25656
1587.20854	1.22447
1585.27998	1.19467
1583.35142	1.16626
1581.42285	1.13940
1579.49429	1.11541
1577.56572	1.09258
1575.63716	1.06507
1573.70859	1.04143
1571.78003	1.02505
1569.85146	1.00659
1567.92290	0.98619
1565.99434	0.96991
1564.06577	0.95516
1562.13721	0.94188
1560.20864	0.92893
1558.28008	0.90817
1556.35151	0.89221
1554.42295	0.88286
1552.49438	0.87281
1550.56582	0.86247
1548.63726	0.85204
1546.70869	0.84246
1544.78013	0.83293
1542.85156	0.82295
1540.92300	0.81247
1538.99443	0.80154
1537.06587	0.79475
1535.13730	0.78934
1533.20874	0.78215
1531.28018	0.77495
1529.35161	0.76925
1527.42305	0.76298
1525.49448	0.75617
1523.56592	0.74992
1521.63735	0.74345
1519.70879	0.73715
1517.78022	0.73219
1515.85166	0.72757
1513.92310	0.72333
1511.99453	0.71927
1510.06597	0.71466
1508.13740	0.70927
1506.20884	0.70336
1504.28027	0.70039
1502.35171	0.69825
1500.42314	0.69514
1498.49458	0.69129
1496.56602	0.68750
1494.63745	0.68445
1492.70889	0.68156
1490.78032	0.67816
1488.85176	0.67450
1486.92319	0.67172
1484.99463	0.66953
1483.06606	0.66724
1481.13750	0.66446
1479.20894	0.66134
1477.28037	0.65813
1475.35181	0.65457
1473.42324	0.65066
1471.49468	0.64704
1469.56611	0.64441
1467.63755	0.64177
1465.70898	0.63870
1463.78042	0.63610
1461.85186	0.63423
1459.92329	0.63199
1457.99473	0.62884
1456.06616	0.62622
1454.13760	0.62504
1452.20903	0.62389
1450.28047	0.62237
1448.35190	0.62075
1446.42334	0.61935
1444.49478	0.61818
1442.56621	0.61688
1440.63765	0.61537
1438.70908	0.61384
1436.78052	0.61233
1434.85195	0.61106
1432.92339	0.60993
1430.99482	0.60869
1429.06626	0.60731
1427.13770	0.60586
1425.20913	0.60425
1423.28057	0.60251
1421.35200	0.60071
1419.42344	0.59880
1417.49487	0.59739
1415.56631	0.59653
1413.63774	0.59542
1411.70918	0.59403
1409.78062	0.59271
1407.85205	0.59136
1405.92349	0.58975
1403.99492	0.58825
1402.06636	0.58691
1400.13779	0.58527
1398.20923	0.58349
1396.28066	0.58212
1394.35210	0.58113
1392.42354	0.58024
1390.49497	0.57915
1388.56641	0.57774
1386.63784	0.57633
1384.70928	0.57520
1382.78071	0.57412
1380.85215	0.57285
1378.92358	0.57160
1376.99502	0.57045
1375.06646	0.56936
1373.13789	0.56852
1371.20933	0.56792
1369.28076	0.56716
1367.35220	0.56625
1365.42363	0.56522
1363.49507	0.56403
1361.56650	0.56308
1359.63794	0.56258
1357.70937	0.56209
1355.78081	0.56139
1353.85225	0.56057
1351.92368	0.55965
1349.99512	0.55867
1348.06655	0.55779
1346.13799	0.55704
1344.20942	0.55621
1342.28086	0.55508
1340.35229	0.55380
1338.42373	0.55276
1336.49517	0.55211
1334.56660	0.55155
1332.63804	0.55088
1330.70947	0.55018
1328.78091	0.54941
1326.85234	0.54846
1324.92378	0.54750
1322.99521	0.54670
1321.06665	0.54589
1319.13809	0.54502
1317.20952	0.54415
1315.28096	0.54334
1313.35239	0.54253
1311.42383	0.54164
1309.49526	0.54082
1307.56670	0.54023
1305.63813	0.53971
1303.70957	0.53900
1301.78101	0.53806
1299.85244	0.53714
1297.92388	0.53641
1295.99531	0.53568
1294.06675	0.53482
1292.13818	0.53394
1290.20962	0.53314
1288.28105	0.53260
1286.35249	0.53222
1284.42393	0.53182
1282.49536	0.53135
1280.56680	0.53085
1278.63823	0.53031
1276.70967	0.52969
1274.78110	0.52915
1272.85254	0.52886
1270.92397	0.52857
1268.99541	0.52810
1267.06685	0.52766
1265.13828	0.52729
1263.20972	0.52692
1261.28115	0.52662
1259.35259	0.52640
1257.42402	0.52621
1255.49546	0.52615
1253.56689	0.52617
1251.63833	0.52606
1249.70977	0.52588
1247.78120	0.52577
1245.85264	0.52561
1243.92407	0.52536
1241.99551	0.52506
1240.06694	0.52464
1238.13838	0.52412
1236.20981	0.52361
1234.28125	0.52318
1232.35269	0.52276
1230.42412	0.52227
1228.49556	0.52172
1226.56699	0.52114
1224.63843	0.52045
1222.70986	0.51967
1220.78130	0.51899
1218.85273	0.51849
1216.92417	0.51800
1214.99561	0.51735
1213.06704	0.51662
1211.13848	0.51600
1209.20991	0.51549
1207.28135	0.51492
1205.35278	0.51419
1203.42422	0.51349
1201.49565	0.51300
1199.56709	0.51266
1197.63853	0.51225
1195.70996	0.51173
1193.78140	0.51119
1191.85283	0.51062
1189.92427	0.51012
1187.99570	0.50982
1186.06714	0.50960
1184.13857	0.50941
1182.21001	0.50931
1180.28145	0.50937
1178.35288	0.50958
1176.42432	0.50990
1174.49575	0.51029
1172.56719	0.51074
1170.63862	0.51106
1168.71006	0.51122
1166.78149	0.51140
1164.85293	0.51159
1162.92437	0.51164
1160.99580	0.51143
1159.06724	0.51094
1157.13867	0.51043
1155.21011	0.50986
1153.28154	0.50889
1151.35298	0.50743
1149.42441	0.50559
1147.49585	0.50356
1145.56729	0.50148
1143.63872	0.49915
1141.71016	0.49667
1139.78159	0.49437
1137.85303	0.49221
1135.92446	0.49006
1133.99590	0.48801
1132.06733	0.48602
1130.13877	0.48393
1128.21021	0.48209
1126.28164	0.48078
1124.35308	0.47979
1122.42451	0.47890
1120.49595	0.47807
1118.56738	0.47750
1116.63882	0.47738
1114.71025	0.47754
1112.78169	0.47787
1110.85312	0.47837
1108.92456	0.47903
1106.99600	0.47988
1105.06743	0.48096
1103.13887	0.48240
1101.21030	0.48421
1099.28174	0.48624
1097.35317	0.48872
1095.42461	0.49188
1093.49604	0.49548
1091.56748	0.49954
1089.63892	0.50433
1087.71035	0.50975
1085.78179	0.51562
1083.85322	0.52197
1081.92466	0.52842
1079.99609	0.53415
1078.06753	0.53807
1076.13896	0.53930
1074.21040	0.53767
1072.28184	0.53365
1070.35327	0.52806
1068.42471	0.52192
1066.49614	0.51582
1064.56758	0.50992
1062.63901	0.50439
1060.71045	0.49925
1058.78188	0.49462
1056.85332	0.49070
1054.92476	0.48742
1052.99619	0.48458
1051.06763	0.48217
1049.13906	0.48012
1047.21050	0.47824
1045.28193	0.47650
1043.35337	0.47500
1041.42480	0.47397
1039.49624	0.47339
1037.56768	0.47296
1035.63911	0.47269
1033.71055	0.47272
1031.78198	0.47303
1029.85342	0.47349
1027.92485	0.47386
1025.99629	0.47415
1024.06772	0.47469
1022.13916	0.47549
1020.21060	0.47634
1018.28203	0.47724
1016.35347	0.47824
1014.42490	0.47935
1012.49634	0.48080
1010.56777	0.48254
1008.63921	0.48415
1006.71064	0.48567
1004.78208	0.48748
1002.85352	0.48979
1000.92495	0.49268
998.99639	0.49594
997.06782	0.49933
995.13926	0.50294
993.21069	0.50670
991.28213	0.51013
989.35356	0.51281
987.42500	0.51454
985.49644	0.51557
983.56787	0.51644
981.63931	0.51759
979.71074	0.51930
977.78218	0.52162
975.85361	0.52436
973.92505	0.52729
971.99648	0.53045
970.06792	0.53398
968.13936	0.53780
966.21079	0.54192
964.28223	0.54642
962.35366	0.55122
960.42510	0.55626
958.49653	0.56163
956.56797	0.56736
954.63940	0.57342
952.71084	0.57977
950.78228	0.58620
948.85371	0.59261
946.92515	0.59884
944.99658	0.60474
943.06802	0.61062
941.13945	0.61666
939.21089	0.62258
937.28232	0.62849
935.35376	0.63477
933.42520	0.64116
931.49663	0.64707
929.56807	0.65234
927.63950	0.65736
925.71094	0.66285
923.78237	0.66922
921.85381	0.67620
919.92524	0.68319
917.99668	0.69020
916.06812	0.69768
914.13955	0.70540
912.21099	0.71328
910.28242	0.72137
908.35386	0.72928
906.42529	0.73779
904.49673	0.74731
902.56816	0.75636
900.63960	0.76445
898.71104	0.77276
896.78247	0.78213
894.85391	0.79254
892.92534	0.80367
890.99678	0.81458
889.06821	0.82447
887.13965	0.83407
885.21108	0.84437
883.28252	0.85569
881.35396	0.86790
879.42539	0.88083
877.49683	0.89423
875.56826	0.90677
873.63970	0.91801
871.71113	0.92868
869.78257	0.93884
867.85400	0.95049
865.92544	0.96442
863.99687	0.97628
862.06831	0.98507
860.13975	0.99518
858.21118	1.00764
856.28262	1.01984
854.35405	1.03085
852.42549	1.04259
850.49692	1.05660
848.56836	1.07066
846.63979	1.08287
844.71123	1.09437
842.78267	1.10542
840.85410	1.11500
838.92554	1.12350
836.99697	1.13367
835.06841	1.14506
833.13984	1.15544
831.21128	1.16617
829.28271	1.17762
827.35415	1.19101
825.42559	1.20710
823.49702	1.22133
821.56846	1.23041
819.63989	1.24008
817.71133	1.25313
815.78276	1.26622
813.85420	1.28019
811.92563	1.28786
809.99707	1.28682
808.06851	1.29012
806.13994	1.30139
804.21138	1.31208
802.28281	1.31503
800.35425	1.32350
798.42568	1.35995
796.49712	1.41044
794.56855	1.44008
792.63999	1.44656
790.71143	1.42649
788.78286	1.41223
786.85430	1.45621
784.92573	1.50909
782.99717	1.50096
781.06860	1.50966
779.14004	1.56741
777.21147	1.54922
775.28291	1.41384
773.35435	1.34363
771.42578	1.40001
769.49722	1.47869
767.56865	1.48093
765.64009	1.44396
763.71152	1.38351
761.78296	1.40763
759.85439	1.58508
757.92583	1.58457
755.99727	1.34819
754.06870	1.26259
752.14014	1.30804
750.21157	1.30215
748.28301	1.17522
746.35444	1.18091
744.42588	1.36969
742.49731	1.28053
740.56875	1.05355
738.64019	0.97145
736.71162	0.93854
734.78306	0.86568
732.85449	0.78162
730.92593	0.79506
728.99736	0.88592
727.06880	0.74607
725.14023	0.52005
723.21167	0.47525
721.28311	0.67395
719.35454	0.82260
717.42598	0.45622
715.49741	0.24963
713.56885	0.23402
711.64028	0.33042
709.71172	0.32847
707.78315	0.15872
705.85459	-0.10795
703.92603	-0.05156
701.99746	0.21129
700.06890	0.35789
698.14033	0.33923
696.21177	0.31861
694.28320	0.33807
692.35464	0.41505
690.42607	0.64124
688.49751	1.50402
686.56895	4.11941
684.64038	1.03959
682.71182	0.51979
680.78325	0.35886
678.85469	0.29581
676.92612	0.23812
674.99756	0.25285
673.06899	0.38830
671.14043	0.50725
669.21187	0.46053
667.28330	0.38827
665.35474	0.38168
663.42617	0.47020
661.49761	0.53471
659.56904	0.44605
657.64048	0.36431
655.71191	0.28856
653.78335	0.24707
651.85479	0.32337
649.92622	0.43568
647.99766	0.44727
646.06909	0.47094
644.14053	0.54519
642.21196	0.54470
640.28340	0.46725
638.35483	0.42207
636.42627	0.40744
634.49771	0.34975
632.56914	0.31803
630.64058	0.33145
628.71201	0.32086
626.78345	0.30350
624.85488	0.33121
622.92632	0.37227
620.99775	0.37217
619.06919	0.39273
617.14062	0.44001
615.21206	0.39612
613.28350	0.29471
611.35493	0.26905
609.42637	0.36836
607.49780	0.52238
605.56924	0.44029
603.64067	0.29218
601.71211	0.23316
599.78354	0.23123
597.85498	0.21477
595.92642	0.20092
593.99785	0.25193
592.06929	0.30021
590.14072	0.30308
588.21216	0.34607
586.28359	0.35242
584.35503	0.28654
582.42646	0.26999
580.49790	0.30172
578.56934	0.31618
576.64077	0.30990
574.71221	0.28244
572.78364	0.25853
570.85508	0.25060
568.92651	0.23935
566.99795	0.27944
565.06938	0.38724
563.14082	0.42527
561.21226	0.34358
559.28369	0.28623
557.35513	0.28249
555.42656	0.27717
553.49800	0.24481
551.56943	0.22654
549.64087	0.24716
547.71230	0.31753
545.78374	0.43696
543.85518	0.52213
541.92661	0.51279
539.99805	0.49888
538.06948	0.44396
536.14092	0.39530
534.21235	0.41121
532.28379	0.45915
530.35522	0.42250
528.42666	0.31151
526.49810	0.22868
524.56953	0.21461
522.64097	0.27009
520.71240	0.41062
518.78384	0.71317
516.85527	0.83273
514.92671	0.47686
512.99814	0.35457
511.06958	0.34093
509.14102	0.37648
507.21245	0.35928
505.28389	0.29913
503.35532	0.28372
501.42676	0.29648
499.49819	0.27569
