3997.91411	0.06483
3995.98555	0.06503
3994.05698	0.06504
3992.12842	0.06538
3990.19985	0.06563
3988.27129	0.06557
3986.34272	0.06571
3984.41416	0.06600
3982.48560	0.06641
3980.55703	0.06700
3978.62847	0.06724
3976.69990	0.06724
3974.77134	0.06749
3972.84277	0.06771
3970.91421	0.06773
3968.98564	0.06777
3967.05708	0.06790
3965.12852	0.06796
3963.19995	0.06793
3961.27139	0.06811
3959.34282	0.06851
3957.41426	0.06873
3955.48569	0.06857
3953.55713	0.06820
3951.62856	0.06813
3949.70000	0.06843
3947.77144	0.06871
3945.84287	0.06877
3943.91431	0.06857
3941.98574	0.06815
3940.05718	0.06784
3938.12861	0.06806
3936.20005	0.06841
3934.27148	0.06836
3932.34292	0.06821
3930.41436	0.06827
3928.48579	0.06831
3926.55723	0.06802
3924.62866	0.06765
3922.70010	0.06777
3920.77153	0.06812
3918.84297	0.06814
3916.91440	0.06823
3914.98584	0.06863
3913.05728	0.06859
3911.12871	0.06809
3909.20015	0.06775
3907.27158	0.06741
3905.34302	0.06681
3903.41445	0.06630
3901.48589	0.06593
3899.55732	0.06585
3897.62876	0.06654
3895.70020	0.06725
3893.77163	0.06736
3891.84307	0.06733
3889.91450	0.06743
3887.98594	0.06716
3886.05737	0.06683
3884.12881	0.06701
3882.20024	0.06727
3880.27168	0.06735
3878.34312	0.06770
3876.41455	0.06807
3874.48599	0.06825
3872.55742	0.06834
3870.62886	0.06815
3868.70029	0.06803
3866.77173	0.06833
3864.84316	0.06855
3862.91460	0.06861
3860.98604	0.06898
3859.05747	0.06953
3857.12891	0.06976
3855.20034	0.06972
3853.27178	0.06997
3851.34321	0.07085
3849.41465	0.07185
3847.48608	0.07265
3845.55752	0.07325
3843.62896	0.07377
3841.70039	0.07396
3839.77183	0.07365
3837.84326	0.07377
3835.91470	0.07482
3833.98613	0.07602
3832.05757	0.07697
3830.12900	0.07800
3828.20044	0.07913
3826.27187	0.08007
3824.34331	0.08044
3822.41475	0.08020
3820.48618	0.08035
3818.55762	0.08160
3816.62905	0.08319
3814.70049	0.08487
3812.77192	0.08618
3810.84336	0.08709
3808.91479	0.08792
3806.98623	0.08877
3805.05767	0.08960
3803.12910	0.08980
3801.20054	0.08985
3799.27197	0.09127
3797.34341	0.09331
3795.41484	0.09531
3793.48628	0.09726
3791.55771	0.09875
3789.62915	0.10000
3787.70059	0.10131
3785.77202	0.10265
3783.84346	0.10406
3781.91489	0.10527
3779.98633	0.10645
3778.05776	0.10844
3776.12920	0.11062
3774.20063	0.11199
3772.27207	0.11293
3770.34351	0.11424
3768.41494	0.11628
3766.48638	0.11838
3764.55781	0.12040
3762.62925	0.12236
3760.70068	0.12404
3758.77212	0.12613
3756.84355	0.12887
3754.91499	0.13106
3752.98643	0.13234
3751.05786	0.13383
3749.12930	0.13707
3747.20073	0.14063
3745.27217	0.14349
3743.34360	0.14762
3741.41504	0.15198
3739.48647	0.15484
3737.55791	0.15733
3735.62935	0.16072
3733.70078	0.16614
3731.77222	0.17250
3729.84365	0.17800
3727.91509	0.18235
3725.98652	0.18684
3724.05796	0.19269
3722.12939	0.19984
3720.20083	0.20773
3718.27227	0.21580
3716.34370	0.22394
3714.41514	0.23182
3712.48657	0.24020
3710.55801	0.25164
3708.62944	0.26591
3706.70088	0.27923
3704.77231	0.29135
3702.84375	0.30447
3700.91519	0.32102
3698.98662	0.33948
3697.05806	0.35733
3695.12949	0.37623
3693.20093	0.39603
3691.27236	0.41652
3689.34380	0.44261
3687.41523	0.47721
3685.48667	0.50994
3683.55811	0.53798
3681.62954	0.56697
3679.70098	0.59862
3677.77241	0.63088
3675.84385	0.66832
3673.91528	0.72000
3671.98672	0.76490
3670.05815	0.80476
3668.12959	0.85842
3666.20103	0.90922
3664.27246	0.95215
3662.34390	0.99668
3660.41533	1.04359
3658.48677	1.08955
3656.55820	1.13888
3654.62964	1.19467
3652.70107	1.24184
3650.77251	1.28169
3648.84395	1.33500
3646.91538	1.40160
3644.98682	1.45409
3643.05825	1.49571
3641.12969	1.53702
3639.20112	1.58125
3637.27256	1.62585
3635.34399	1.66964
3633.41543	1.71305
3631.48687	1.75314
3629.55830	1.79326
3627.62974	1.84564
3625.70117	1.89662
3623.77261	1.93307
3621.84404	1.96802
3619.91548	2.00701
3617.98691	2.05226
3616.05835	2.09562
3614.12979	2.13307
3612.20122	2.17280
3610.27266	2.21240
3608.34409	2.25226
3606.41553	2.29500
3604.48696	2.33506
3602.55840	2.37131
3600.62983	2.40984
3598.70127	2.45101
3596.77271	2.49163
3594.84414	2.53328
3592.91558	2.57635
3590.98701	2.61630
3589.05845	2.65196
3587.12988	2.69440
3585.20132	2.74439
3583.27275	2.78801
3581.34419	2.82577
3579.41562	2.86533
3577.48706	2.90879
3575.55850	2.95419
3573.62993	3.00039
3571.70137	3.04288
3569.77280	3.08173
3567.84424	3.12398
3565.91567	3.17600
3563.98711	3.22707
3562.05854	3.26974
3560.12998	3.31194
3558.20142	3.35692
3556.27285	3.40260
3554.34429	3.44735
3552.41572	3.49465
3550.48716	3.54353
3548.55859	3.58932
3546.63003	3.63251
3544.70146	3.67815
3542.77290	3.72729
3540.84434	3.77761
3538.91577	3.82743
3536.98721	3.87459
3535.05864	3.92143
3533.13008	3.96893
3531.20151	4.01760
3529.27295	4.06536
3527.34438	4.11133
3525.41582	4.16053
3523.48726	4.21389
3521.55869	4.26586
3519.63013	4.31356
3517.70156	4.36178
3515.77300	4.41106
3513.84443	4.45940
3511.91587	4.50480
3509.98730	4.54759
3508.05874	4.59302
3506.13018	4.64352
3504.20161	4.69677
3502.27305	4.74771
3500.34448	4.79446
3498.41592	4.84043
3496.48735	4.88925
3494.55879	4.94283
3492.63022	4.99879
3490.70166	5.04923
3488.77310	5.09007
3486.84453	5.12928
3484.91597	5.17586
3482.98740	5.22492
3481.05884	5.27138
3479.13027	5.31921
3477.20171	5.36891
3475.27314	5.41658
3473.34458	5.46108
3471.41602	5.50688
3469.48745	5.55782
3467.55889	5.61187
3465.63032	5.66717
3463.70176	5.72485
3461.77319	5.78121
3459.84463	5.83572
3457.91606	5.89395
3455.98750	5.95738
3454.05894	6.01771
3452.13037	6.06284
3450.20181	6.09078
3448.27324	6.11751
3446.34468	6.16262
3444.41611	6.21293
3442.48755	6.25080
3440.55898	6.28954
3438.63042	6.34301
3436.70186	6.40454
3434.77329	6.46708
3432.84473	6.52527
3430.91616	6.57368
3428.98760	6.61888
3427.05903	6.66639
3425.13047	6.72249
3423.20190	6.77544
3421.27334	6.82939
3419.34478	6.89138
3417.41621	6.94058
3415.48765	6.98882
3413.55908	7.04022
3411.63052	7.07097
3409.70195	7.10580
3407.77339	7.20366
3405.84482	7.31682
3403.91626	7.33067
3401.98770	7.27354
3400.05913	7.27342
3398.13057	7.34146
3396.20200	7.40181
3394.27344	7.44254
3392.34487	7.46702
3390.41631	7.48822
3388.48774	7.54667
3386.55918	7.63625
3384.63062	7.67020
3382.70205	7.66574
3380.77349	7.70549
3378.84492	7.73495
3376.91636	7.71763
3374.98779	7.69454
3373.05923	7.69508
3371.13066	7.70456
3369.20210	7.70481
3367.27354	7.69718
3365.34497	7.71944
3363.41641	7.80538
3361.48784	7.91526
3359.55928	7.96328
3357.63071	7.93790
3355.70215	7.96476
3353.77358	8.09595
3351.84502	8.23859
3349.91646	8.24507
3347.98789	8.14711
3346.05933	8.11518
3344.13076	8.15006
3342.20220	8.11686
3340.27363	8.00554
3338.34507	7.93595
3336.41650	7.95984
3334.48794	8.07136
3332.55937	8.20025
3330.63081	8.28654
3328.70225	8.32069
3326.77368	8.30312
3324.84512	8.29753
3322.91655	8.32893
3320.98799	8.32242
3319.05942	8.23381
3317.13086	8.17385
3315.20229	8.22298
3313.27373	8.31064
3311.34517	8.28659
3309.41660	8.18173
3307.48804	8.13317
3305.55947	8.14319
3303.63091	8.19032
3301.70234	8.26815
3299.77378	8.33296
3297.84521	8.33673
3295.91665	8.29262
3293.98809	8.21781
3292.05952	8.16570
3290.13096	8.16378
3288.20239	8.18488
3286.27383	8.24136
3284.34526	8.26602
3282.41670	8.21820
3280.48813	8.18666
3278.55957	8.22931
3276.63101	8.33332
3274.70244	8.47491
3272.77388	8.59884
3270.84531	8.56850
3268.91675	8.38857
3266.98818	8.28330
3265.05962	8.32840
3263.13105	8.37402
3261.20249	8.39047
3259.27393	8.45279
3257.34536	8.50785
3255.41680	8.48147
3253.48823	8.41252
3251.55967	8.40783
3249.63110	8.49041
3247.70254	8.53995
3245.77397	8.49866
3243.84541	8.48899
3241.91685	8.52246
3239.98828	8.46649
3238.05972	8.32971
3236.13115	8.25645
3234.20259	8.26759
3232.27402	8.28023
3230.34546	8.27862
3228.41689	8.28262
3226.48833	8.29976
3224.55977	8.36573
3222.63120	8.43041
3220.70264	8.36007
3218.77407	8.24682
3216.84551	8.22964
3214.91694	8.26139
3212.98838	8.22571
3211.05981	8.10478
3209.13125	8.02438
3207.20269	8.02196
3205.27412	7.99872
3203.34556	7.96274
3201.41699	7.94562
3199.48843	7.89582
3197.55986	7.87920
3195.63130	7.89972
3193.70273	7.81322
3191.77417	7.66779
3189.84561	7.59854
3187.91704	7.57510
3185.98848	7.53137
3184.05991	7.49141
3182.13135	7.45813
3180.20278	7.39213
3178.27422	7.29512
3176.34565	7.22878
3174.41709	7.20795
3172.48853	7.15378
3170.55996	7.03995
3168.63140	6.95014
3166.70283	6.92178
3164.77427	6.89655
3162.84570	6.84551
3160.91714	6.79884
3158.98857	6.76509
3157.06001	6.70732
3155.13145	6.61592
3153.20288	6.53566
3151.27432	6.49197
3149.34575	6.46017
3147.41719	6.40091
3145.48862	6.31914
3143.56006	6.23964
3141.63149	6.16803
3139.70293	6.09539
3137.77437	6.01358
3135.84580	5.93104
3133.91724	5.85210
3131.98867	5.77393
3130.06011	5.70516
3128.13154	5.64636
3126.20298	5.58138
3124.27441	5.50685
3122.34585	5.43110
3120.41729	5.35600
3118.48872	5.27994
3116.56016	5.20476
3114.63159	5.13423
3112.70303	5.06669
3110.77446	4.99671
3108.84590	4.92474
3106.91733	4.85633
3104.98877	4.79143
3103.06021	4.72404
3101.13164	4.65234
3099.20308	4.58223
3097.27451	4.51601
3095.34595	4.45183
3093.41738	4.38982
3091.48882	4.32739
3089.56025	4.26475
3087.63169	4.20556
3085.70312	4.14782
3083.77456	4.08663
3081.84600	4.02204
3079.91743	3.95783
3077.98887	3.89689
3076.06030	3.83888
3074.13174	3.78071
3072.20317	3.72195
3070.27461	3.66485
3068.34604	3.60956
3066.41748	3.55409
3064.48892	3.49717
3062.56035	3.44007
3060.63179	3.38544
3058.70322	3.33304
3056.77466	3.27977
3054.84609	3.22585
3052.91753	3.17363
3050.98896	3.12228
3049.06040	3.07041
3047.13184	3.01958
3045.20327	2.97113
3043.27471	2.92301
3041.34614	2.87328
3039.41758	2.82396
3037.48901	2.77738
3035.56045	2.73174
3033.63188	2.68548
3031.70332	2.63986
3029.77476	2.59534
3027.84619	2.55166
3025.91763	2.50895
3023.98906	2.46657
3022.06050	2.42384
3020.13193	2.38160
3018.20337	2.34045
3016.27480	2.29950
3014.34624	2.25894
3012.41768	2.21968
3010.48911	2.18104
3008.56055	2.14282
3006.63198	2.10586
3004.70342	2.06988
3002.77485	2.03454
3000.84629	1.99999
2998.91772	1.96602
2996.98916	1.93246
2995.06060	1.89953
2993.13203	1.86785
2991.20347	1.83782
2989.27490	1.80849
2987.34634	1.77901
2985.41777	1.74985
2983.48921	1.72164
2981.56064	1.69431
2979.63208	1.66759
2977.70352	1.64150
2975.77495	1.61612
2973.84639	1.59117
2971.91782	1.56627
2969.98926	1.54145
2968.06069	1.51714
2966.13213	1.49356
2964.20356	1.47009
2962.27500	1.44634
2960.34644	1.42230
2958.41787	1.39750
2956.48931	1.37229
2954.56074	1.34785
2952.63218	1.32391
2950.70361	1.29939
2948.77505	1.27478
2946.84648	1.25151
2944.91792	1.22975
2942.98936	1.20846
2941.06079	1.18742
2939.13223	1.16697
2937.20366	1.14657
2935.27510	1.12575
2933.34653	1.10520
2931.41797	1.08555
2929.48940	1.06627
2927.56084	1.04683
2925.63228	1.02725
2923.70371	1.00778
2921.77515	0.98884
2919.84658	0.97056
2917.91802	0.95281
2915.98945	0.93531
2914.06089	0.91788
2912.13232	0.90063
2910.20376	0.88401
2908.27520	0.86845
2906.34663	0.85359
2904.41807	0.83874
2902.48950	0.82381
2900.56094	0.80924
2898.63237	0.79534
2896.70381	0.78192
2894.77524	0.76879
2892.84668	0.75588
2890.91812	0.74335
2888.98955	0.73144
2887.06099	0.72011
2885.13242	0.70944
2883.20386	0.69945
2881.27529	0.68982
2879.34673	0.68037
2877.41816	0.67101
2875.48960	0.66137
2873.56104	0.65115
2871.63247	0.64039
2869.70391	0.62907
2867.77534	0.61698
2865.84678	0.60441
2863.91821	0.59195
2861.98965	0.57996
2860.06108	0.56881
2858.13252	0.55841
2856.20396	0.54839
2854.27539	0.53877
2852.34683	0.52938
2850.41826	0.52007
2848.48970	0.51092
2846.56113	0.50222
2844.63257	0.49442
2842.70400	0.48749
2840.77544	0.48102
2838.84687	0.47477
2836.91831	0.46871
2834.98975	0.46274
2833.06118	0.45679
2831.13262	0.45079
2829.20405	0.44470
2827.27549	0.43850
2825.34692	0.43238
2823.41836	0.42642
2821.48979	0.42042
2819.56123	0.41438
2817.63267	0.40842
2815.70410	0.40250
2813.77554	0.39655
2811.84697	0.39084
2809.91841	0.38552
2807.98984	0.38033
2806.06128	0.37507
2804.13271	0.36975
2802.20415	0.36443
2800.27559	0.35920
2798.34702	0.35404
2796.41846	0.34893
2794.48989	0.34400
2792.56133	0.33936
2790.63276	0.33487
2788.70420	0.33034
2786.77563	0.32569
2784.84707	0.32106
2782.91851	0.31660
2780.98994	0.31231
2779.06138	0.30819
2777.13281	0.30416
2775.20425	0.30018
2773.27568	0.29630
2771.34712	0.29263
2769.41855	0.28908
2767.48999	0.28531
2765.56143	0.28145
2763.63286	0.27774
2761.70430	0.27409
2759.77573	0.27054
2757.84717	0.26718
2755.91860	0.26384
2753.99004	0.26055
2752.06147	0.25744
2750.13291	0.25440
2748.20435	0.25135
2746.27578	0.24841
2744.34722	0.24559
2742.41865	0.24287
2740.49009	0.24012
2738.56152	0.23726
2736.63296	0.23449
2734.70439	0.23185
2732.77583	0.22927
2730.84727	0.22672
2728.91870	0.22421
2726.99014	0.22185
2725.06157	0.21971
2723.13301	0.21770
2721.20444	0.21557
2719.27588	0.21325
2717.34731	0.21098
2715.41875	0.20884
2713.49019	0.20676
2711.56162	0.20487
2709.63306	0.20322
2707.70449	0.20164
2705.77593	0.19993
2703.84736	0.19816
2701.91880	0.19650
2699.99023	0.19504
2698.06167	0.19363
2696.13311	0.19214
2694.20454	0.19062
2692.27598	0.18914
2690.34741	0.18776
2688.41885	0.18654
2686.49028	0.18536
2684.56172	0.18413
2682.63315	0.18284
2680.70459	0.18152
2678.77603	0.18031
2676.84746	0.17924
2674.91890	0.17822
2672.99033	0.17716
2671.06177	0.17610
2669.13320	0.17510
2667.20464	0.17413
2665.27607	0.17315
2663.34751	0.17221
2661.41895	0.17128
2659.49038	0.17036
2657.56182	0.16956
2655.63325	0.16885
2653.70469	0.16802
2651.77612	0.16719
2649.84756	0.16655
2647.91899	0.16606
2645.99043	0.16547
2644.06187	0.16476
2642.13330	0.16416
2640.20474	0.16375
2638.27617	0.16333
2636.34761	0.16276
2634.41904	0.16212
2632.49048	0.16148
2630.56191	0.16095
2628.63335	0.16057
2626.70479	0.16021
2624.77622	0.15990
2622.84766	0.15964
2620.91909	0.15932
2618.99053	0.15890
2617.06196	0.15849
2615.13340	0.15815
2613.20483	0.15792
2611.27627	0.15781
2609.34771	0.15766
2607.41914	0.15754
2605.49058	0.15772
2603.56201	0.15792
2601.63345	0.15772
2599.70488	0.15738
2597.77632	0.15730
2595.84775	0.15744
2593.91919	0.15757
2591.99062	0.15758
2590.06206	0.15753
2588.13350	0.15751
2586.20493	0.15766
2584.27637	0.15794
2582.34780	0.15819
2580.41924	0.15844
2578.49067	0.15872
2576.56211	0.15892
2574.63354	0.15908
2572.70498	0.15929
2570.77642	0.15959
2568.84785	0.15995
2566.91929	0.16024
2564.99072	0.16047
2563.06216	0.16074
2561.13359	0.16106
2559.20503	0.16149
2557.27646	0.16201
2555.34790	0.16246
2553.41934	0.16288
2551.49077	0.16339
2549.56221	0.16394
2547.63364	0.16451
2545.70508	0.16508
2543.77651	0.16564
2541.84795	0.16623
2539.91938	0.16682
2537.99082	0.16741
2536.06226	0.16795
2534.13369	0.16843
2532.20513	0.16902
2530.27656	0.16979
2528.34800	0.17059
2526.41943	0.17125
2524.49087	0.17190
2522.56230	0.17267
2520.63374	0.17352
2518.70518	0.17430
2516.77661	0.17495
2514.84805	0.17554
2512.91948	0.17620
2510.99092	0.17692
2509.06235	0.17769
2507.13379	0.17850
2505.20522	0.17926
2503.27666	0.17995
2501.34810	0.18061
2499.41953	0.18142
2497.49097	0.18241
2495.56240	0.18332
2493.63384	0.18413
2491.70527	0.18500
2489.77671	0.18593
2487.84814	0.18676
2485.91958	0.18739
2483.99102	0.18799
2482.06245	0.18882
2480.13389	0.18980
2478.20532	0.19064
2476.27676	0.19140
2474.34819	0.19231
2472.41963	0.19329
2470.49106	0.19427
2468.56250	0.19523
2466.63394	0.19609
2464.70537	0.19693
2462.77681	0.19772
2460.84824	0.19841
2458.91968	0.19922
2456.99111	0.20030
2455.06255	0.20141
2453.13398	0.20233
2451.20542	0.20319
2449.27686	0.20421
2447.34829	0.20528
2445.41973	0.20630
2443.49116	0.20735
2441.56260	0.20837
2439.63403	0.20933
2437.70547	0.21034
2435.77690	0.21136
2433.84834	0.21234
2431.91978	0.21339
2429.99121	0.21443
2428.06265	0.21536
2426.13408	0.21638
2424.20552	0.21758
2422.27695	0.21876
2420.34839	0.21982
2418.41982	0.22086
2416.49126	0.22194
2414.56270	0.22309
2412.63413	0.22429
2410.70557	0.22543
2408.77700	0.22646
2406.84844	0.22752
2404.91987	0.22865
2402.99131	0.22981
2401.06274	0.23105
2399.13418	0.23232
2397.20562	0.23354
2395.27705	0.23482
2393.34849	0.23613
2391.41992	0.23735
2389.49136	0.23845
2387.56279	0.23958
2385.63423	0.24075
2383.70566	0.24189
2381.77710	0.24290
2379.84854	0.24378
2377.91997	0.24457
2375.99141	0.24529
2374.06284	0.24614
2372.13428	0.24707
2370.20571	0.24791
2368.27715	0.24863
2366.34858	0.24896
2364.42002	0.24908
2362.49146	0.24973
2360.56289	0.25077
2358.63433	0.25218
2356.70576	0.25446
2354.77720	0.25734
2352.84863	0.26067
2350.92007	0.26355
2348.99150	0.26503
2347.06294	0.26543
2345.13437	0.26564
2343.20581	0.26643
2341.27725	0.26797
2339.34868	0.26995
2337.42012	0.27200
2335.49155	0.27376
2333.56299	0.27532
2331.63442	0.27732
2329.70586	0.27975
2327.77729	0.28177
2325.84873	0.28328
2323.92017	0.28505
2321.99160	0.28729
2320.06304	0.28974
2318.13447	0.29215
2316.20591	0.29428
2314.27734	0.29622
2312.34878	0.29817
2310.42021	0.30016
2308.49165	0.30221
2306.56309	0.30433
2304.63452	0.30626
2302.70596	0.30799
2300.77739	0.30980
2298.84883	0.31182
2296.92026	0.31385
2294.99170	0.31578
2293.06313	0.31770
2291.13457	0.31969
2289.20601	0.32175
2287.27744	0.32380
2285.34888	0.32584
2283.42031	0.32791
2281.49175	0.32995
2279.56318	0.33184
2277.63462	0.33371
2275.70605	0.33575
2273.77749	0.33790
2271.84893	0.34003
2269.92036	0.34210
2267.99180	0.34422
2266.06323	0.34643
2264.13467	0.34860
2262.20610	0.35068
2260.27754	0.35279
2258.34897	0.35501
2256.42041	0.35730
2254.49185	0.35957
2252.56328	0.36178
2250.63472	0.36395
2248.70615	0.36609
2246.77759	0.36818
2244.84902	0.37033
2242.92046	0.37263
2240.99189	0.37498
2239.06333	0.37720
2237.13477	0.37933
2235.20620	0.38151
2233.27764	0.38377
2231.34907	0.38613
2229.42051	0.38857
2227.49194	0.39089
2225.56338	0.39298
2223.63481	0.39510
2221.70625	0.39742
2219.77769	0.39968
2217.84912	0.40173
2215.92056	0.40384
2213.99199	0.40609
2212.06343	0.40836
2210.13486	0.41052
2208.20630	0.41252
2206.27773	0.41446
2204.34917	0.41651
2202.42061	0.41875
2200.49204	0.42098
2198.56348	0.42303
2196.63491	0.42496
2194.70635	0.42680
2192.77778	0.42861
2190.84922	0.43054
2188.92065	0.43257
2186.99209	0.43452
2185.06353	0.43636
2183.13496	0.43807
2181.20640	0.43966
2179.27783	0.44119
2177.34927	0.44274
2175.42070	0.44433
2173.49214	0.44590
2171.56357	0.44738
2169.63501	0.44881
2167.70645	0.45024
2165.77788	0.45157
2163.84932	0.45275
2161.92075	0.45390
2159.99219	0.45503
2158.06362	0.45602
2156.13506	0.45694
2154.20649	0.45793
2152.27793	0.45890
2150.34937	0.45972
2148.42080	0.46036
2146.49224	0.46089
2144.56367	0.46136
2142.63511	0.46179
2140.70654	0.46215
2138.77798	0.46239
2136.84941	0.46256
2134.92085	0.46266
2132.99229	0.46261
2131.06372	0.46256
2129.13516	0.46261
2127.20659	0.46258
2125.27803	0.46230
2123.34946	0.46173
2121.42090	0.46109
2119.49233	0.46047
2117.56377	0.45982
2115.63521	0.45913
2113.70664	0.45842
2111.77808	0.45759
2109.84951	0.45661
2107.92095	0.45552
2105.99238	0.45430
2104.06382	0.45298
2102.13525	0.45162
2100.20669	0.45031
2098.27812	0.44902
2096.34956	0.44763
2094.42100	0.44608
2092.49243	0.44439
2090.56387	0.44271
2088.63530	0.44111
2086.70674	0.43942
2084.77817	0.43747
2082.84961	0.43543
2080.92104	0.43348
2078.99248	0.43150
2077.06392	0.42938
2075.13535	0.42724
2073.20679	0.42511
2071.27822	0.42281
2069.34966	0.42033
2067.42109	0.41789
2065.49253	0.41557
2063.56396	0.41328
2061.63540	0.41099
2059.70684	0.40858
2057.77827	0.40600
2055.84971	0.40341
2053.92114	0.40082
2051.99258	0.39817
2050.06401	0.39554
2048.13545	0.39298
2046.20688	0.39034
2044.27832	0.38754
2042.34976	0.38466
2040.42119	0.38180
2038.49263	0.37901
2036.56406	0.37627
2034.63550	0.37357
2032.70693	0.37088
2030.77837	0.36809
2028.84980	0.36522
2026.92124	0.36245
2024.99268	0.35972
2023.06411	0.35683
2021.13555	0.35384
2019.20698	0.35100
2017.27842	0.34834
2015.34985	0.34573
2013.42129	0.34300
2011.49272	0.34009
2009.56416	0.33720
2007.63560	0.33447
2005.70703	0.33180
2003.77847	0.32919
2001.84990	0.32658
1999.92134	0.32386
1997.99277	0.32115
1996.06421	0.31858
1994.13564	0.31602
1992.20708	0.31337
1990.27852	0.31075
1988.34995	0.30826
1986.42139	0.30586
1984.49282	0.30347
1982.56426	0.30107
1980.63569	0.29867
1978.70713	0.29630
1976.77856	0.29395
1974.85000	0.29170
1972.92144	0.28958
1970.99287	0.28747
1969.06431	0.28533
1967.13574	0.28325
1965.20718	0.28126
1963.27861	0.27927
1961.35005	0.27727
1959.42148	0.27528
1957.49292	0.27335
1955.56436	0.27149
1953.63579	0.26972
1951.70723	0.26801
1949.77866	0.26636
1947.85010	0.26479
1945.92153	0.26323
1943.99297	0.26164
1942.06440	0.26007
1940.13584	0.25865
1938.20728	0.25732
1936.27871	0.25594
1934.35015	0.25454
1932.42158	0.25318
1930.49302	0.25190
1928.56445	0.25077
1926.63589	0.24968
1924.70732	0.24858
1922.77876	0.24751
1920.85020	0.24649
1918.92163	0.24550
1916.99307	0.24459
1915.06450	0.24377
1913.13594	0.24295
1911.20737	0.24216
1909.27881	0.24144
1907.35024	0.24084
1905.42168	0.24029
1903.49312	0.23972
1901.56455	0.23916
1899.63599	0.23866
1897.70742	0.23821
1895.77886	0.23776
1893.85029	0.23741
1891.92173	0.23704
1889.99316	0.23667
1888.06460	0.23639
1886.13604	0.23617
1884.20747	0.23594
1882.27891	0.23571
1880.35034	0.23554
1878.42178	0.23544
1876.49321	0.23548
1874.56465	0.23552
1872.63608	0.23552
1870.70752	0.23546
1868.77896	0.23555
1866.85039	0.23582
1864.92183	0.23609
1862.99326	0.23630
1861.06470	0.23651
1859.13613	0.23690
1857.20757	0.23732
1855.27900	0.23772
1853.35044	0.23815
1851.42187	0.23867
1849.49331	0.23920
1847.56475	0.23972
1845.63618	0.24020
1843.70762	0.24091
1841.77905	0.24197
1839.85049	0.24282
1837.92192	0.24367
1835.99336	0.24460
1834.06479	0.24555
1832.13623	0.24638
1830.20767	0.24741
1828.27910	0.24874
1826.35054	0.24991
1824.42197	0.25122
1822.49341	0.25273
1820.56484	0.25425
1818.63628	0.25571
1816.70771	0.25732
1814.77915	0.25893
1812.85059	0.26051
1810.92202	0.26233
1808.99346	0.26448
1807.06489	0.26671
1805.13633	0.26874
1803.20776	0.27079
1801.27920	0.27297
1799.35063	0.27552
1797.42207	0.27808
1795.49351	0.28048
1793.56494	0.28304
1791.63638	0.28643
1789.70781	0.29023
1787.77925	0.29338
1785.85068	0.29671
1783.92212	0.30036
1781.99355	0.30417
1780.06499	0.30821
1778.13643	0.31247
1776.20786	0.31643
1774.27930	0.32033
1772.35073	0.32556
1770.42217	0.33195
1768.49360	0.33788
1766.56504	0.34348
1764.63647	0.34898
1762.70791	0.35472
1760.77935	0.36196
1758.85078	0.36900
1756.92222	0.37611
1754.99365	0.38393
1753.06509	0.39096
1751.13652	0.39884
1749.20796	0.40875
1747.27939	0.41918
1745.35083	0.42868
1743.42227	0.43837
1741.49370	0.44873
1739.56514	0.46086
1737.63657	0.47327
1735.70801	0.48425
1733.77944	0.50028
1731.85088	0.51981
1729.92231	0.53596
1727.99375	0.55235
1726.06519	0.56976
1724.13662	0.58828
1722.20806	0.60796
1720.27949	0.62618
1718.35093	0.64721
1716.42236	0.67815
1714.49380	0.70910
1712.56523	0.73517
1710.63667	0.76012
1708.70811	0.78643
1706.77954	0.81592
1704.85098	0.85091
1702.92241	0.88262
1700.99385	0.91441
1699.06528	0.96137
1697.13672	1.00506
1695.20815	1.05069
1693.27959	1.09665
1691.35103	1.13432
1689.42246	1.17708
1687.49390	1.22203
1685.56533	1.26583
1683.63677	1.33311
1681.70820	1.40418
1679.77964	1.45066
1677.85107	1.49439
1675.92251	1.54420
1673.99395	1.60538
1672.06538	1.66138
1670.13682	1.71766
1668.20825	1.79095
1666.27969	1.85223
1664.35112	1.90475
1662.42256	1.97101
1660.49399	2.04781
1658.56543	2.10943
1656.63687	2.15888
1654.70830	2.20188
1652.77974	2.26122
1650.85117	2.31753
1648.92261	2.33834
1646.99404	2.36255
1645.06548	2.38982
1643.13691	2.40848
1641.20835	2.41562
1639.27979	2.42020
1637.35122	2.42156
1635.42266	2.41731
1633.49409	2.40742
1631.56553	2.39139
1629.63696	2.37183
1627.70840	2.34002
1625.77983	2.30230
1623.85127	2.25541
1621.92271	2.19868
1619.99414	2.14792
1618.06558	2.09996
1616.13701	2.03443
1614.20845	1.96644
1612.27988	1.91264
1610.35132	1.85693
1608.42275	1.79772
1606.49419	1.73971
1604.56562	1.68610
1602.63706	1.63460
1600.70850	1.58500
1598.77993	1.53999
1596.85137	1.49797
1594.92280	1.45719
1592.99424	1.41814
1591.06567	1.38299
1589.13711	1.35081
1587.20854	1.32143
1585.27998	1.29463
1583.35142	1.27009
1581.42285	1.24823
1579.49429	1.22963
1577.56572	1.21315
1575.63716	1.19487
1573.70859	1.17991
1571.78003	1.17024
1569.85146	1.16116
1567.92290	1.15287
1565.99434	1.14795
1564.06577	1.14545
1562.13721	1.14427
1560.20864	1.14542
1558.28008	1.15479
1556.35151	1.16655
1554.42295	1.17307
1552.49438	1.17865
1550.56582	1.18202
1548.63726	1.18229
1546.70869	1.17871
1544.78013	1.16985
1542.85156	1.15553
1540.92300	1.13368
1538.99443	1.10146
1537.06587	1.07767
1535.13730	1.06023
1533.20874	1.03657
1531.28018	1.01141
1529.35161	0.99255
1527.42305	0.97469
1525.49448	0.95669
1523.56592	0.94132
1521.63735	0.92676
1519.70879	0.91296
1517.78022	0.90162
1515.85166	0.88833
1513.92310	0.87398
1511.99453	0.86068
1510.06597	0.84771
1508.13740	0.83423
1506.20884	0.81603
1504.28027	0.80193
1502.35171	0.79365
1500.42314	0.78570
1498.49458	0.77704
1496.56602	0.76768
1494.63745	0.75890
1492.70889	0.75174
1490.78032	0.74479
1488.85176	0.73715
1486.92319	0.73090
1484.99463	0.72640
1483.06606	0.72282
1481.13750	0.71972
1479.20894	0.71732
1477.28037	0.71601
1475.35181	0.71561
1473.42324	0.71587
1471.49468	0.71608
1469.56611	0.71527
1467.63755	0.71340
1465.70898	0.71126
1463.78042	0.70988
1461.85186	0.70950
1459.92329	0.70940
1457.99473	0.70962
1456.06616	0.71006
1454.13760	0.70883
1452.20903	0.70650
1450.28047	0.70383
1448.35190	0.70100
1446.42334	0.69811
1444.49478	0.69535
1442.56621	0.69263
1440.63765	0.68970
1438.70908	0.68630
1436.78052	0.68185
1434.85195	0.67731
1432.92339	0.67420
1430.99482	0.67219
1429.06626	0.67128
1427.13770	0.67152
1425.20913	0.67252
1423.28057	0.67404
1421.35200	0.67529
1419.42344	0.67607
1417.49487	0.67668
1415.56631	0.67675
1413.63774	0.67666
1411.70918	0.67712
1409.78062	0.67862
1407.85205	0.68090
1405.92349	0.68358
1403.99492	0.68615
1402.06636	0.68733
1400.13779	0.68682
1398.20923	0.68507
1396.28066	0.68221
1394.35210	0.67800
1392.42354	0.67305
1390.49497	0.66811
1388.56641	0.66270
1386.63784	0.65636
1384.70928	0.64993
1382.78071	0.64392
1380.85215	0.63803
1378.92358	0.63270
1376.99502	0.62844
1375.06646	0.62533
1373.13789	0.62346
1371.20933	0.62269
1369.28076	0.62215
1367.35220	0.62099
1365.42363	0.61912
1363.49507	0.61703
1361.56650	0.61522
1359.63794	0.61372
1357.70937	0.61233
1355.78081	0.61099
1353.85225	0.60992
1351.92368	0.60921
1349.99512	0.60868
1348.06655	0.60812
1346.13799	0.60750
1344.20942	0.60696
1342.28086	0.60643
1340.35229	0.60581
1338.42373	0.60508
1336.49517	0.60455
1334.56660	0.60448
1332.63804	0.60474
1330.70947	0.60520
1328.78091	0.60595
1326.85234	0.60703
1324.92378	0.60832
1322.99521	0.60968
1321.06665	0.61084
1319.13809	0.61174
1317.20952	0.61240
1315.28096	0.61277
1313.35239	0.61282
1311.42383	0.61256
1309.49526	0.61216
1307.56670	0.61178
1305.63813	0.61136
1303.70957	0.61088
1301.78101	0.61037
1299.85244	0.60956
1297.92388	0.60830
1295.99531	0.60686
1294.06675	0.60544
1292.13818	0.60391
1290.20962	0.60230
1288.28105	0.60079
1286.35249	0.59935
1284.42393	0.59786
1282.49536	0.59626
1280.56680	0.59457
1278.63823	0.59293
1276.70967	0.59146
1274.78110	0.59019
1272.85254	0.58910
1270.92397	0.58807
1268.99541	0.58702
1267.06685	0.58609
1265.13828	0.58531
1263.20972	0.58457
1261.28115	0.58381
1259.35259	0.58308
1257.42402	0.58243
1255.49546	0.58197
1253.56689	0.58188
1251.63833	0.58215
1249.70977	0.58251
1247.78120	0.58272
1245.85264	0.58263
1243.92407	0.58209
1241.99551	0.58100
1240.06694	0.57943
1238.13838	0.57749
1236.20981	0.57512
1234.28125	0.57243
1232.35269	0.56968
1230.42412	0.56702
1228.49556	0.56457
1226.56699	0.56231
1224.63843	0.56010
1222.70986	0.55807
1220.78130	0.55627
1218.85273	0.55452
1216.92417	0.55288
1214.99561	0.55145
1213.06704	0.55025
1211.13848	0.54944
1209.20991	0.54896
1207.28135	0.54833
1205.35278	0.54731
1203.42422	0.54607
1201.49565	0.54480
1199.56709	0.54372
1197.63853	0.54295
1195.70996	0.54236
1193.78140	0.54186
1191.85283	0.54149
1189.92427	0.54125
1187.99570	0.54102
1186.06714	0.54082
1184.13857	0.54091
1182.21001	0.54152
1180.28145	0.54261
1178.35288	0.54405
1176.42432	0.54554
1174.49575	0.54676
1172.56719	0.54750
1170.63862	0.54759
1168.71006	0.54710
1166.78149	0.54634
1164.85293	0.54565
1162.92437	0.54496
1160.99580	0.54396
1159.06724	0.54265
1157.13867	0.54131
1155.21011	0.54009
1153.28154	0.53885
1151.35298	0.53722
1149.42441	0.53497
1147.49585	0.53230
1145.56729	0.52960
1143.63872	0.52708
1141.71016	0.52473
1139.78159	0.52266
1137.85303	0.52108
1135.92446	0.52007
1133.99590	0.51947
1132.06733	0.51909
1130.13877	0.51871
1128.21021	0.51810
1126.28164	0.51730
1124.35308	0.51645
1122.42451	0.51569
1120.49595	0.51505
1118.56738	0.51458
1116.63882	0.51434
1114.71025	0.51427
1112.78169	0.51439
1110.85312	0.51470
1108.92456	0.51511
1106.99600	0.51579
1105.06743	0.51692
1103.13887	0.51847
1101.21030	0.52029
1099.28174	0.52240
1097.35317	0.52485
1095.42461	0.52780
1093.49604	0.53130
1091.56748	0.53524
1089.63892	0.53980
1087.71035	0.54522
1085.78179	0.55116
1083.85322	0.55712
1081.92466	0.56276
1079.99609	0.56763
1078.06753	0.57084
1076.13896	0.57148
1074.21040	0.56916
1072.28184	0.56432
1070.35327	0.55817
1068.42471	0.55156
1066.49614	0.54499
1064.56758	0.53875
1062.63901	0.53282
1060.71045	0.52745
1058.78188	0.52274
1056.85332	0.51848
1054.92476	0.51458
1052.99619	0.51121
1051.06763	0.50833
1049.13906	0.50567
1047.21050	0.50315
1045.28193	0.50078
1043.35337	0.49856
1041.42480	0.49674
1039.49624	0.49551
1037.56768	0.49472
1035.63911	0.49401
1033.71055	0.49331
1031.78198	0.49284
1029.85342	0.49260
1027.92485	0.49234
1025.99629	0.49212
1024.06772	0.49225
1022.13916	0.49270
1020.21060	0.49328
1018.28203	0.49394
1016.35347	0.49457
1014.42490	0.49520
1012.49634	0.49619
1010.56777	0.49754
1008.63921	0.49893
1006.71064	0.50038
1004.78208	0.50217
1002.85352	0.50447
1000.92495	0.50728
998.99639	0.51056
997.06782	0.51432
995.13926	0.51848
993.21069	0.52263
991.28213	0.52631
989.35356	0.52909
987.42500	0.53074
985.49644	0.53151
983.56787	0.53205
981.63931	0.53290
979.71074	0.53418
977.78218	0.53589
975.85361	0.53810
973.92505	0.54076
971.99648	0.54374
970.06792	0.54709
968.13936	0.55089
966.21079	0.55517
964.28223	0.55983
962.35366	0.56448
960.42510	0.56902
958.49653	0.57390
956.56797	0.57938
954.63940	0.58548
952.71084	0.59206
950.78228	0.59873
948.85371	0.60522
946.92515	0.61147
944.99658	0.61759
943.06802	0.62392
941.13945	0.63064
939.21089	0.63726
937.28232	0.64308
935.35376	0.64833
933.42520	0.65369
931.49663	0.65941
929.56807	0.66534
927.63950	0.67094
925.71094	0.67638
923.78237	0.68246
921.85381	0.68905
919.92524	0.69586
917.99668	0.70321
916.06812	0.71090
914.13955	0.71832
912.21099	0.72526
910.28242	0.73228
908.35386	0.74053
906.42529	0.74997
904.49673	0.75943
902.56816	0.76867
900.63960	0.77825
898.71104	0.78811
896.78247	0.79812
894.85391	0.80866
892.92534	0.81960
890.99678	0.82983
889.06821	0.83907
887.13965	0.84923
885.21108	0.86131
883.28252	0.87348
881.35396	0.88483
879.42539	0.89679
877.49683	0.90946
875.56826	0.92067
873.63970	0.93053
871.71113	0.94088
869.78257	0.95147
867.85400	0.96245
865.92544	0.97463
863.99687	0.98703
862.06831	0.99869
860.13975	1.01075
858.21118	1.02376
856.28262	1.03592
854.35405	1.04707
852.42549	1.05800
850.49692	1.06883
848.56836	1.08048
846.63979	1.09270
844.71123	1.10455
842.78267	1.11631
840.85410	1.12824
838.92554	1.13908
836.99697	1.15003
835.06841	1.16430
833.13984	1.17959
831.21128	1.19187
829.28271	1.20164
827.35415	1.20857
825.42559	1.21449
823.49702	1.22424
821.56846	1.23594
819.63989	1.24777
817.71133	1.26207
815.78276	1.28025
813.85420	1.29907
811.92563	1.31038
809.99707	1.31425
808.06851	1.31807
806.13994	1.32593
804.21138	1.34157
802.28281	1.36471
800.35425	1.38065
798.42568	1.38709
796.49712	1.39489
794.56855	1.40751
792.63999	1.44832
790.71143	1.52599
788.78286	1.55932
786.85430	1.50217
784.92573	1.47535
782.99717	1.50713
781.06860	1.52131
779.14004	1.51696
777.21147	1.50896
775.28291	1.53090
773.35435	1.65016
771.42578	1.67019
769.49722	1.51674
767.56865	1.38448
765.64009	1.28877
763.71152	1.30322
761.78296	1.50524
759.85439	1.92265
757.92583	2.44186
755.99727	2.10642
754.06870	1.60904
752.14014	1.38006
750.21157	1.39880
748.28301	1.49421
746.35444	1.33409
744.42588	1.16652
742.49731	1.15435
740.56875	1.20016
738.64019	1.05833
736.71162	0.85710
734.78306	0.73781
732.85449	0.68797
730.92593	0.69834
728.99736	0.77862
727.06880	0.81074
725.14023	0.65097
723.21167	0.46739
721.28311	0.27201
719.35454	0.17204
717.42598	0.29145
715.49741	0.39751
713.56885	0.30819
711.64028	0.19289
709.71172	0.16399
707.78315	0.22276
705.85459	0.26726
703.92603	0.37169
701.99746	0.49561
700.06890	0.40248
698.14033	0.35094
696.21177	0.45532
694.28320	0.54211
692.35464	0.46005
690.42607	0.44055
688.49751	0.48103
686.56895	0.50289
684.64038	0.52367
682.71182	0.54011
680.78325	0.47927
678.85469	0.38018
676.92612	0.39826
674.99756	0.71914
673.06899	1.35535
671.14043	0.59884
669.21187	0.38833
667.28330	0.33944
665.35474	0.29375
663.42617	0.24821
661.49761	0.25320
659.56904	0.27304
657.64048	0.27136
655.71191	0.28161
653.78335	0.35751
651.85479	0.46787
649.92622	0.37313
647.99766	0.26380
646.06909	0.27790
644.14053	0.41022
642.21196	0.56149
640.28340	0.53582
638.35483	0.46429
636.42627	0.41469
634.49771	0.34091
632.56914	0.32108
630.64058	0.39673
628.71201	0.41752
626.78345	0.33928
624.85488	0.30204
622.92632	0.32525
620.99775	0.38234
619.06919	0.38220
617.14062	0.32580
615.21206	0.31331
613.28350	0.34309
611.35493	0.35196
609.42637	0.30886
607.49780	0.25416
605.56924	0.27469
603.64067	0.37119
601.71211	0.40806
599.78354	0.38393
597.85498	0.35871
595.92642	0.32623
593.99785	0.32042
592.06929	0.29897
590.14072	0.24544
588.21216	0.26868
586.28359	0.38452
584.35503	0.46183
582.42646	0.43268
580.49790	0.43367
578.56934	0.52037
576.64077	0.57000
574.71221	0.46538
572.78364	0.34871
570.85508	0.24915
568.92651	0.17938
566.99795	0.18581
565.06938	0.25962
563.14082	0.34131
561.21226	0.37002
559.28369	0.32331
557.35513	0.25498
555.42656	0.22228
553.49800	0.24870
551.56943	0.26679
549.64087	0.23337
547.71230	0.23634
545.78374	0.27644
543.85518	0.30807
541.92661	0.37188
539.99805	0.47827
538.06948	0.52929
536.14092	0.51042
534.21235	0.47145
532.28379	0.41678
530.35522	0.34580
528.42666	0.35454
526.49810	0.52933
524.56953	0.58319
522.64097	0.37950
520.71240	0.25346
518.78384	0.22505
516.85527	0.28844
514.92671	0.33426
512.99814	0.23617
511.06958	0.15172
509.14102	0.12690
507.21245	0.14815
505.28389	0.22581
503.35532	0.35725
501.42676	0.42545
499.49819	0.35129
