3997.91411	0.06877
3995.98555	0.06945
3994.05698	0.07053
3992.12842	0.07122
3990.19985	0.07132
3988.27129	0.07119
3986.34272	0.07126
3984.41416	0.07164
3982.48560	0.07214
3980.55703	0.07240
3978.62847	0.07233
3976.69990	0.07267
3974.77134	0.07344
3972.84277	0.07393
3970.91421	0.07408
3968.98564	0.07393
3967.05708	0.07347
3965.12852	0.07323
3963.19995	0.07383
3961.27139	0.07472
3959.34282	0.07498
3957.41426	0.07506
3955.48569	0.07546
3953.55713	0.07575
3951.62856	0.07644
3949.70000	0.07840
3947.77144	0.07992
3945.84287	0.07939
3943.91431	0.07916
3941.98574	0.07985
3940.05718	0.07871
3938.12861	0.07639
3936.20005	0.07542
3934.27148	0.07683
3932.34292	0.07999
3930.41436	0.08173
3928.48579	0.08033
3926.55723	0.07897
3924.62866	0.07999
3922.70010	0.08080
3920.77153	0.07986
3918.84297	0.07999
3916.91440	0.08121
3914.98584	0.07992
3913.05728	0.07650
3911.12871	0.07426
3909.20015	0.07410
3907.27158	0.07645
3905.34302	0.08258
3903.41445	0.09060
3901.48589	0.09474
3899.55732	0.09306
3897.62876	0.08744
3895.70020	0.08167
3893.77163	0.08058
3891.84307	0.08414
3889.91450	0.08579
3887.98594	0.08390
3886.05737	0.08497
3884.12881	0.08826
3882.20024	0.08935
3880.27168	0.08936
3878.34312	0.08645
3876.41455	0.08285
3874.48599	0.08482
3872.55742	0.09058
3870.62886	0.09548
3868.70029	0.09694
3866.77173	0.09450
3864.84316	0.09382
3862.91460	0.09450
3860.98604	0.09103
3859.05747	0.08704
3857.12891	0.08828
3855.20034	0.09569
3853.27178	0.10717
3851.34321	0.10872
3849.41465	0.09716
3847.48608	0.08812
3845.55752	0.08587
3843.62896	0.08967
3841.70039	0.09679
3839.77183	0.10451
3837.84326	0.10996
3835.91470	0.10893
3833.98613	0.10402
3832.05757	0.10004
3830.12900	0.09712
3828.20044	0.09576
3826.27187	0.09691
3824.34331	0.09940
3822.41475	0.10457
3820.48618	0.11278
3818.55762	0.11517
3816.62905	0.11247
3814.70049	0.10846
3812.77192	0.10183
3810.84336	0.09781
3808.91479	0.09962
3806.98623	0.10586
3805.05767	0.11151
3803.12910	0.11559
3801.20054	0.12097
3799.27197	0.12193
3797.34341	0.11825
3795.41484	0.11496
3793.48628	0.11081
3791.55771	0.10755
3789.62915	0.10734
3787.70059	0.10931
3785.77202	0.11264
3783.84346	0.11587
3781.91489	0.11797
3779.98633	0.12114
3778.05776	0.12391
3776.12920	0.12243
3774.20063	0.12064
3772.27207	0.12305
3770.34351	0.12936
3768.41494	0.13515
3766.48638	0.13725
3764.55781	0.13753
3762.62925	0.13787
3760.70068	0.14144
3758.77212	0.14838
3756.84355	0.15310
3754.91499	0.15538
3752.98643	0.16168
3751.05786	0.17423
3749.12930	0.18344
3747.20073	0.18273
3745.27217	0.18251
3743.34360	0.18470
3741.41504	0.18408
3739.48647	0.18426
3737.55791	0.19042
3735.62935	0.20356
3733.70078	0.21454
3731.77222	0.21321
3729.84365	0.20783
3727.91509	0.20754
3725.98652	0.21373
3724.05796	0.22233
3722.12939	0.22912
3720.20083	0.23396
3718.27227	0.23744
3716.34370	0.24155
3714.41514	0.24977
3712.48657	0.26569
3710.55801	0.28659
3708.62944	0.29877
3706.70088	0.30274
3704.77231	0.30960
3702.84375	0.32306
3700.91519	0.34115
3698.98662	0.35786
3697.05806	0.37330
3695.12949	0.39212
3693.20093	0.41476
3691.27236	0.44269
3689.34380	0.47761
3687.41523	0.51050
3685.48667	0.53281
3683.55811	0.55357
3681.62954	0.58100
3679.70098	0.61635
3677.77241	0.65682
3675.84385	0.70499
3673.91528	0.76055
3671.98672	0.80039
3670.05815	0.83836
3668.12959	0.88858
3666.20103	0.92939
3664.27246	0.96471
3662.34390	1.00699
3660.41533	1.05508
3658.48677	1.10396
3656.55820	1.15658
3654.62964	1.21334
3652.70107	1.26138
3650.77251	1.30925
3648.84395	1.37696
3646.91538	1.44559
3644.98682	1.48511
3643.05825	1.51622
3641.12969	1.55330
3639.20112	1.59698
3637.27256	1.64245
3635.34399	1.68807
3633.41543	1.73454
3631.48687	1.77938
3629.55830	1.82727
3627.62974	1.88503
3625.70117	1.92971
3623.77261	1.95815
3621.84404	1.99101
3619.91548	2.03374
3617.98691	2.08404
3616.05835	2.12831
3614.12979	2.16462
3612.20122	2.20315
3610.27266	2.24173
3608.34409	2.28164
3606.41553	2.32244
3604.48696	2.35769
3602.55840	2.39151
3600.62983	2.43225
3598.70127	2.47623
3596.77271	2.51662
3594.84414	2.55707
3592.91558	2.59896
3590.98701	2.63784
3589.05845	2.67589
3587.12988	2.72250
3585.20132	2.76885
3583.27275	2.80449
3581.34419	2.83961
3579.41562	2.87975
3577.48706	2.92291
3575.55850	2.96706
3573.62993	3.01149
3571.70137	3.05370
3569.77280	3.09599
3567.84424	3.14529
3565.91567	3.20357
3563.98711	3.25354
3562.05854	3.29192
3560.12998	3.33183
3558.20142	3.37512
3556.27285	3.41788
3554.34429	3.46024
3552.41572	3.50729
3550.48716	3.55555
3548.55859	3.60070
3546.63003	3.64764
3544.70146	3.69881
3542.77290	3.74739
3540.84434	3.79025
3538.91577	3.83364
3536.98721	3.88074
3535.05864	3.93016
3533.13008	3.97890
3531.20151	4.02826
3529.27295	4.07967
3527.34438	4.13189
3525.41582	4.18227
3523.48726	4.23107
3521.55869	4.27993
3519.63013	4.32568
3517.70156	4.37063
3515.77300	4.41918
3513.84443	4.46970
3511.91587	4.51924
3509.98730	4.56831
3508.05874	4.61570
3506.13018	4.66062
3504.20161	4.70754
3502.27305	4.75795
3500.34448	4.80647
3498.41592	4.85135
3496.48735	4.89782
3494.55879	4.94277
3492.63022	4.98300
3490.70166	5.03159
3488.77310	5.09364
3486.84453	5.15134
3484.91597	5.19796
3482.98740	5.24566
3481.05884	5.29635
3479.13027	5.34446
3477.20171	5.39206
3475.27314	5.44390
3473.34458	5.49893
3471.41602	5.54470
3469.48745	5.57836
3467.55889	5.61751
3465.63032	5.67219
3463.70176	5.73911
3461.77319	5.80222
3459.84463	5.85188
3457.91606	5.90057
3455.98750	5.95804
3454.05894	6.01458
3452.13037	6.06132
3450.20181	6.10857
3448.27324	6.16029
3446.34468	6.21012
3444.41611	6.26059
3442.48755	6.31547
3440.55898	6.35387
3438.63042	6.37688
3436.70186	6.42174
3434.77329	6.49896
3432.84473	6.57531
3430.91616	6.61412
3428.98760	6.63469
3427.05903	6.67277
3425.13047	6.72969
3423.20190	6.77882
3421.27334	6.81861
3419.34478	6.87471
3417.41621	6.95312
3415.48765	7.03230
3413.55908	7.09034
3411.63052	7.13675
3409.70195	7.17060
3407.77339	7.18675
3405.84482	7.19427
3403.91626	7.21265
3401.98770	7.23698
3400.05913	7.25731
3398.13057	7.30243
3396.20200	7.39653
3394.27344	7.50600
3392.34487	7.57152
3390.41631	7.62062
3388.48774	7.65204
3386.55918	7.65010
3384.63062	7.67099
3382.70205	7.73545
3380.77349	7.79854
3378.84492	7.82461
3376.91636	7.83585
3374.98779	7.85287
3373.05923	7.88617
3371.13066	7.91782
3369.20210	7.94807
3367.27354	7.99407
3365.34497	8.03429
3363.41641	8.00601
3361.48784	7.93907
3359.55928	7.93788
3357.63071	7.97645
3355.70215	7.98329
3353.77358	7.95910
3351.84502	7.97417
3349.91646	8.05792
3347.98789	8.16118
3346.05933	8.18548
3344.13076	8.12872
3342.20220	8.13356
3340.27363	8.20080
3338.34507	8.19604
3336.41650	8.12050
3334.48794	8.09899
3332.55937	8.14116
3330.63081	8.22545
3328.70225	8.31447
3326.77368	8.31776
3324.84512	8.26226
3322.91655	8.23039
3320.98799	8.24314
3319.05942	8.24683
3317.13086	8.24456
3315.20229	8.26508
3313.27373	8.29578
3311.34517	8.29760
3309.41660	8.25464
3307.48804	8.25234
3305.55947	8.31337
3303.63091	8.35283
3301.70234	8.36159
3299.77378	8.39410
3297.84521	8.41704
3295.91665	8.37807
3293.98809	8.31418
3292.05952	8.35760
3290.13096	8.51634
3288.20239	8.62868
3286.27383	8.58499
3284.34526	8.41327
3282.41670	8.32296
3280.48813	8.39700
3278.55957	8.45392
3276.63101	8.40703
3274.70244	8.42724
3272.77388	8.51763
3270.84531	8.47586
3268.91675	8.36965
3266.98818	8.38291
3265.05962	8.44034
3263.13105	8.37024
3261.20249	8.28364
3259.27393	8.33313
3257.34536	8.41512
3255.41680	8.39978
3253.48823	8.36487
3251.55967	8.35503
3249.63110	8.38262
3247.70254	8.49438
3245.77397	8.62415
3243.84541	8.62914
3241.91685	8.49289
3239.98828	8.35909
3238.05972	8.30593
3236.13115	8.33276
3234.20259	8.37432
3232.27402	8.36231
3230.34546	8.28716
3228.41689	8.18449
3226.48833	8.15984
3224.55977	8.19717
3222.63120	8.21718
3220.70264	8.23339
3218.77407	8.23688
3216.84551	8.19457
3214.91694	8.14066
3212.98838	8.09921
3211.05981	8.07220
3209.13125	8.06185
3207.20269	8.02484
3205.27412	7.98601
3203.34556	8.00850
3201.41699	8.05700
3199.48843	8.02930
3197.55986	7.90301
3195.63130	7.80013
3193.70273	7.77782
3191.77417	7.74563
3189.84561	7.66933
3187.91704	7.62488
3185.98848	7.59761
3184.05991	7.53139
3182.13135	7.45620
3180.20278	7.39307
3178.27422	7.34829
3176.34565	7.34476
3174.41709	7.34053
3172.48853	7.27269
3170.55996	7.18829
3168.63140	7.14503
3166.70283	7.09157
3164.77427	7.00211
3162.84570	6.91348
3160.91714	6.83286
3158.98857	6.77717
3157.06001	6.73334
3155.13145	6.66622
3153.20288	6.58971
3151.27432	6.51635
3149.34575	6.44141
3147.41719	6.36617
3145.48862	6.29337
3143.56006	6.22359
3141.63149	6.15700
3139.70293	6.08705
3137.77437	6.00938
3135.84580	5.92768
3133.91724	5.84873
3131.98867	5.78181
3130.06011	5.72405
3128.13154	5.65963
3126.20298	5.58331
3124.27441	5.50838
3122.34585	5.43989
3120.41729	5.36655
3118.48872	5.28865
3116.56016	5.21470
3114.63159	5.14146
3112.70303	5.06798
3110.77446	4.99922
3108.84590	4.93372
3106.91733	4.86754
3104.98877	4.79801
3103.06021	4.72668
3101.13164	4.65777
3099.20308	4.59242
3097.27451	4.52856
3095.34595	4.46358
3093.41738	4.39473
3091.48882	4.32448
3089.56025	4.25918
3087.63169	4.19803
3085.70312	4.13626
3083.77456	4.07225
3081.84600	4.00883
3079.91743	3.94759
3077.98887	3.88562
3076.06030	3.82438
3074.13174	3.76712
3072.20317	3.71215
3070.27461	3.65784
3068.34604	3.60207
3066.41748	3.54213
3064.48892	3.48128
3062.56035	3.42390
3060.63179	3.36922
3058.70322	3.31528
3056.77466	3.26152
3054.84609	3.20842
3052.91753	3.15639
3050.98896	3.10513
3049.06040	3.05364
3047.13184	3.00131
3045.20327	2.94933
3043.27471	2.89943
3041.34614	2.85147
3039.41758	2.80425
3037.48901	2.75725
3035.56045	2.71038
3033.63188	2.66406
3031.70332	2.61878
3029.77476	2.57437
3027.84619	2.53031
3025.91763	2.48631
3023.98906	2.44279
3022.06050	2.40012
3020.13193	2.35818
3018.20337	2.31731
3016.27480	2.27775
3014.34624	2.23879
3012.41768	2.19974
3010.48911	2.16084
3008.56055	2.12270
3006.63198	2.08561
3004.70342	2.04920
3002.77485	2.01336
3000.84629	1.97847
2998.91772	1.94428
2996.98916	1.91074
2995.06060	1.87821
2993.13203	1.84635
2991.20347	1.81507
2989.27490	1.78413
2987.34634	1.75323
2985.41777	1.72333
2983.48921	1.69481
2981.56064	1.66673
2979.63208	1.63881
2977.70352	1.61161
2975.77495	1.58529
2973.84639	1.55914
2971.91782	1.53290
2969.98926	1.50735
2968.06069	1.48292
2966.13213	1.45888
2964.20356	1.43441
2962.27500	1.40980
2960.34644	1.38554
2958.41787	1.36141
2956.48931	1.33725
2954.56074	1.31286
2952.63218	1.28815
2950.70361	1.26395
2948.77505	1.24075
2946.84648	1.21791
2944.91792	1.19526
2942.98936	1.17329
2941.06079	1.15204
2939.13223	1.13125
2937.20366	1.11083
2935.27510	1.09092
2933.34653	1.07144
2931.41797	1.05189
2929.48940	1.03209
2927.56084	1.01264
2925.63228	0.99394
2923.70371	0.97611
2921.77515	0.95842
2919.84658	0.94000
2917.91802	0.92131
2915.98945	0.90325
2914.06089	0.88649
2912.13232	0.87098
2910.20376	0.85592
2908.27520	0.84077
2906.34663	0.82587
2904.41807	0.81167
2902.48950	0.79806
2900.56094	0.78444
2898.63237	0.77066
2896.70381	0.75736
2894.77524	0.74465
2892.84668	0.73223
2890.91812	0.72018
2888.98955	0.70836
2887.06099	0.69680
2885.13242	0.68581
2883.20386	0.67532
2881.27529	0.66522
2879.34673	0.65531
2877.41816	0.64532
2875.48960	0.63527
2873.56104	0.62515
2871.63247	0.61476
2869.70391	0.60405
2867.77534	0.59301
2865.84678	0.58171
2863.91821	0.57039
2861.98965	0.55942
2860.06108	0.54903
2858.13252	0.53903
2856.20396	0.52932
2854.27539	0.51996
2852.34683	0.51078
2850.41826	0.50178
2848.48970	0.49317
2846.56113	0.48506
2844.63257	0.47759
2842.70400	0.47094
2840.77544	0.46489
2838.84687	0.45883
2836.91831	0.45258
2834.98975	0.44652
2833.06118	0.44090
2831.13262	0.43539
2829.20405	0.42959
2827.27549	0.42360
2825.34692	0.41766
2823.41836	0.41181
2821.48979	0.40602
2819.56123	0.40027
2817.63267	0.39448
2815.70410	0.38872
2813.77554	0.38301
2811.84697	0.37736
2809.91841	0.37198
2807.98984	0.36687
2806.06128	0.36173
2804.13271	0.35641
2802.20415	0.35113
2800.27559	0.34620
2798.34702	0.34162
2796.41846	0.33711
2794.48989	0.33240
2792.56133	0.32753
2790.63276	0.32276
2788.70420	0.31816
2786.77563	0.31377
2784.84707	0.30956
2782.91851	0.30546
2780.98994	0.30146
2779.06138	0.29762
2777.13281	0.29381
2775.20425	0.28986
2773.27568	0.28589
2771.34712	0.28216
2769.41855	0.27856
2767.48999	0.27490
2765.56143	0.27129
2763.63286	0.26786
2761.70430	0.26455
2759.77573	0.26120
2757.84717	0.25782
2755.91860	0.25467
2753.99004	0.25169
2752.06147	0.24870
2750.13291	0.24571
2748.20435	0.24277
2746.27578	0.23989
2744.34722	0.23714
2742.41865	0.23453
2740.49009	0.23199
2738.56152	0.22942
2736.63296	0.22685
2734.70439	0.22437
2732.77583	0.22200
2730.84727	0.21963
2728.91870	0.21716
2726.99014	0.21478
2725.06157	0.21260
2723.13301	0.21056
2721.20444	0.20848
2719.27588	0.20634
2717.34731	0.20420
2715.41875	0.20218
2713.49019	0.20045
2711.56162	0.19885
2709.63306	0.19711
2707.70449	0.19535
2705.77593	0.19378
2703.84736	0.19236
2701.91880	0.19090
2699.99023	0.18933
2698.06167	0.18771
2696.13311	0.18613
2694.20454	0.18474
2692.27598	0.18352
2690.34741	0.18240
2688.41885	0.18128
2686.49028	0.18000
2684.56172	0.17863
2682.63315	0.17733
2680.70459	0.17608
2678.77603	0.17492
2676.84746	0.17386
2674.91890	0.17282
2672.99033	0.17177
2671.06177	0.17067
2669.13320	0.16962
2667.20464	0.16872
2665.27607	0.16793
2663.34751	0.16721
2661.41895	0.16642
2659.49038	0.16556
2657.56182	0.16478
2655.63325	0.16405
2653.70469	0.16333
2651.77612	0.16269
2649.84756	0.16214
2647.91899	0.16156
2645.99043	0.16083
2644.06187	0.16014
2642.13330	0.15960
2640.20474	0.15898
2638.27617	0.15834
2636.34761	0.15794
2634.41904	0.15778
2632.49048	0.15754
2630.56191	0.15713
2628.63335	0.15677
2626.70479	0.15649
2624.77622	0.15612
2622.84766	0.15567
2620.91909	0.15531
2618.99053	0.15508
2617.06196	0.15495
2615.13340	0.15482
2613.20483	0.15467
2611.27627	0.15457
2609.34771	0.15444
2607.41914	0.15432
2605.49058	0.15423
2603.56201	0.15411
2601.63345	0.15399
2599.70488	0.15396
2597.77632	0.15405
2595.84775	0.15413
2593.91919	0.15408
2591.99062	0.15404
2590.06206	0.15417
2588.13350	0.15448
2586.20493	0.15483
2584.27637	0.15504
2582.34780	0.15517
2580.41924	0.15539
2578.49067	0.15563
2576.56211	0.15582
2574.63354	0.15610
2572.70498	0.15652
2570.77642	0.15697
2568.84785	0.15740
2566.91929	0.15777
2564.99072	0.15812
2563.06216	0.15850
2561.13359	0.15892
2559.20503	0.15940
2557.27646	0.15993
2555.34790	0.16045
2553.41934	0.16093
2551.49077	0.16142
2549.56221	0.16201
2547.63364	0.16269
2545.70508	0.16330
2543.77651	0.16379
2541.84795	0.16423
2539.91938	0.16479
2537.99082	0.16550
2536.06226	0.16623
2534.13369	0.16692
2532.20513	0.16751
2530.27656	0.16802
2528.34800	0.16865
2526.41943	0.16946
2524.49087	0.17030
2522.56230	0.17109
2520.63374	0.17186
2518.70518	0.17259
2516.77661	0.17324
2514.84805	0.17393
2512.91948	0.17474
2510.99092	0.17561
2509.06235	0.17645
2507.13379	0.17729
2505.20522	0.17810
2503.27666	0.17882
2501.34810	0.17956
2499.41953	0.18045
2497.49097	0.18141
2495.56240	0.18229
2493.63384	0.18305
2491.70527	0.18387
2489.77671	0.18488
2487.84814	0.18589
2485.91958	0.18669
2483.99102	0.18751
2482.06245	0.18845
2480.13389	0.18934
2478.20532	0.19023
2476.27676	0.19121
2474.34819	0.19207
2472.41963	0.19277
2470.49106	0.19356
2468.56250	0.19455
2466.63394	0.19560
2464.70537	0.19659
2462.77681	0.19751
2460.84824	0.19847
2458.91968	0.19954
2456.99111	0.20060
2455.06255	0.20152
2453.13398	0.20236
2451.20542	0.20327
2449.27686	0.20426
2447.34829	0.20528
2445.41973	0.20635
2443.49116	0.20741
2441.56260	0.20840
2439.63403	0.20942
2437.70547	0.21046
2435.77690	0.21148
2433.84834	0.21253
2431.91978	0.21356
2429.99121	0.21447
2428.06265	0.21538
2426.13408	0.21649
2424.20552	0.21770
2422.27695	0.21885
2420.34839	0.22000
2418.41982	0.22115
2416.49126	0.22218
2414.56270	0.22326
2412.63413	0.22446
2410.70557	0.22569
2408.77700	0.22698
2406.84844	0.22827
2404.91987	0.22953
2402.99131	0.23069
2401.06274	0.23173
2399.13418	0.23286
2397.20562	0.23414
2395.27705	0.23548
2393.34849	0.23684
2391.41992	0.23817
2389.49136	0.23955
2387.56279	0.24127
2385.63423	0.24365
2383.70566	0.24686
2381.77710	0.25093
2379.84854	0.25554
2377.91997	0.26043
2375.99141	0.26594
2374.06284	0.27258
2372.13428	0.28012
2370.20571	0.28820
2368.27715	0.29666
2366.34858	0.30494
2364.42002	0.31200
2362.49146	0.31697
2360.56289	0.32006
2358.63433	0.32157
2356.70576	0.32038
2354.77720	0.31613
2352.84863	0.31068
2350.92007	0.30510
2348.99150	0.30145
2347.06294	0.30214
2345.13437	0.30809
2343.20581	0.31615
2341.27725	0.32076
2339.34868	0.32224
2337.42012	0.32302
2335.49155	0.32352
2333.56299	0.32366
2331.63442	0.32409
2329.70586	0.32469
2327.77729	0.32482
2325.84873	0.32424
2323.92017	0.32338
2321.99160	0.32266
2320.06304	0.32162
2318.13447	0.32022
2316.20591	0.31914
2314.27734	0.31880
2312.34878	0.31911
2310.42021	0.31964
2308.49165	0.31989
2306.56309	0.31982
2304.63452	0.31973
2302.70596	0.31999
2300.77739	0.32078
2298.84883	0.32172
2296.92026	0.32253
2294.99170	0.32340
2293.06313	0.32448
2291.13457	0.32560
2289.20601	0.32679
2287.27744	0.32807
2285.34888	0.32930
2283.42031	0.33074
2281.49175	0.33271
2279.56318	0.33503
2277.63462	0.33732
2275.70605	0.33943
2273.77749	0.34149
2271.84893	0.34357
2269.92036	0.34565
2267.99180	0.34777
2266.06323	0.34988
2264.13467	0.35196
2262.20610	0.35403
2260.27754	0.35611
2258.34897	0.35821
2256.42041	0.36028
2254.49185	0.36229
2252.56328	0.36427
2250.63472	0.36626
2248.70615	0.36837
2246.77759	0.37060
2244.84902	0.37290
2242.92046	0.37515
2240.99189	0.37722
2239.06333	0.37927
2237.13477	0.38148
2235.20620	0.38369
2233.27764	0.38578
2231.34907	0.38796
2229.42051	0.39033
2227.49194	0.39270
2225.56338	0.39495
2223.63481	0.39713
2221.70625	0.39927
2219.77769	0.40141
2217.84912	0.40358
2215.92056	0.40587
2213.99199	0.40820
2212.06343	0.41039
2210.13486	0.41251
2208.20630	0.41471
2206.27773	0.41686
2204.34917	0.41882
2202.42061	0.42082
2200.49204	0.42305
2198.56348	0.42531
2196.63491	0.42736
2194.70635	0.42926
2192.77778	0.43117
2190.84922	0.43300
2188.92065	0.43478
2186.99209	0.43669
2185.06353	0.43864
2183.13496	0.44039
2181.20640	0.44201
2179.27783	0.44362
2177.34927	0.44527
2175.42070	0.44691
2173.49214	0.44849
2171.56357	0.44995
2169.63501	0.45130
2167.70645	0.45265
2165.77788	0.45403
2163.84932	0.45527
2161.92075	0.45628
2159.99219	0.45719
2158.06362	0.45816
2156.13506	0.45920
2154.20649	0.46018
2152.27793	0.46104
2150.34937	0.46179
2148.42080	0.46250
2146.49224	0.46320
2144.56367	0.46375
2142.63511	0.46408
2140.70654	0.46435
2138.77798	0.46459
2136.84941	0.46477
2134.92085	0.46492
2132.99229	0.46494
2131.06372	0.46483
2129.13516	0.46471
2127.20659	0.46447
2125.27803	0.46407
2123.34946	0.46363
2121.42090	0.46326
2119.49233	0.46284
2117.56377	0.46229
2115.63521	0.46163
2113.70664	0.46084
2111.77808	0.45993
2109.84951	0.45903
2107.92095	0.45809
2105.99238	0.45702
2104.06382	0.45586
2102.13525	0.45458
2100.20669	0.45323
2098.27812	0.45182
2096.34956	0.45040
2094.42100	0.44893
2092.49243	0.44735
2090.56387	0.44567
2088.63530	0.44387
2086.70674	0.44201
2084.77817	0.44016
2082.84961	0.43829
2080.92104	0.43620
2078.99248	0.43396
2077.06392	0.43178
2075.13535	0.42976
2073.20679	0.42774
2071.27822	0.42555
2069.34966	0.42325
2067.42109	0.42099
2065.49253	0.41875
2063.56396	0.41631
2061.63540	0.41374
2059.70684	0.41122
2057.77827	0.40865
2055.84971	0.40603
2053.92114	0.40341
2051.99258	0.40079
2050.06401	0.39816
2048.13545	0.39552
2046.20688	0.39284
2044.27832	0.39023
2042.34976	0.38773
2040.42119	0.38514
2038.49263	0.38230
2036.56406	0.37939
2034.63550	0.37651
2032.70693	0.37367
2030.77837	0.37088
2028.84980	0.36809
2026.92124	0.36534
2024.99268	0.36261
2023.06411	0.35977
2021.13555	0.35695
2019.20698	0.35450
2017.27842	0.35217
2015.34985	0.34924
2013.42129	0.34596
2011.49272	0.34302
2009.56416	0.34044
2007.63560	0.33780
2005.70703	0.33502
2003.77847	0.33222
2001.84990	0.32947
1999.92134	0.32683
1997.99277	0.32422
1996.06421	0.32172
1994.13564	0.31975
1992.20708	0.31808
1990.27852	0.31562
1988.34995	0.31242
1986.42139	0.30926
1984.49282	0.30639
1982.56426	0.30387
1980.63569	0.30150
1978.70713	0.29920
1976.77856	0.29696
1974.85000	0.29476
1972.92144	0.29254
1970.99287	0.29048
1969.06431	0.28889
1967.13574	0.28742
1965.20718	0.28514
1963.27861	0.28244
1961.35005	0.28019
1959.42148	0.27819
1957.49292	0.27628
1955.56436	0.27455
1953.63579	0.27279
1951.70723	0.27095
1949.77866	0.26931
1947.85010	0.26801
1945.92153	0.26707
1943.99297	0.26652
1942.06440	0.26547
1940.13584	0.26298
1938.20728	0.26031
1936.27871	0.25854
1934.35015	0.25734
1932.42158	0.25624
1930.49302	0.25499
1928.56445	0.25373
1926.63589	0.25275
1924.70732	0.25253
1922.77876	0.25257
1920.85020	0.25175
1918.92163	0.25081
1916.99307	0.24984
1915.06450	0.24803
1913.13594	0.24648
1911.20737	0.24612
1909.27881	0.24612
1907.35024	0.24529
1905.42168	0.24384
1903.49312	0.24271
1901.56455	0.24199
1899.63599	0.24144
1897.70742	0.24128
1895.77886	0.24149
1893.85029	0.24141
1891.92173	0.24122
1889.99316	0.24160
1888.06460	0.24132
1886.13604	0.24010
1884.20747	0.23925
1882.27891	0.23882
1880.35034	0.23852
1878.42178	0.23833
1876.49321	0.23826
1874.56465	0.23833
1872.63608	0.23901
1870.70752	0.24117
1868.77896	0.24414
1866.85039	0.24432
1864.92183	0.24183
1862.99326	0.24009
1861.06470	0.23982
1859.13613	0.24020
1857.20757	0.24056
1855.27900	0.24086
1853.35044	0.24125
1851.42187	0.24194
1849.49331	0.24322
1847.56475	0.24520
1845.63618	0.24774
1843.70762	0.24958
1841.77905	0.24882
1839.85049	0.24747
1837.92192	0.24781
1835.99336	0.24888
1834.06479	0.24990
1832.13623	0.25197
1830.20767	0.25548
1828.27910	0.25755
1826.35054	0.25769
1824.42197	0.25810
1822.49341	0.25810
1820.56484	0.25817
1818.63628	0.25932
1816.70771	0.26102
1814.77915	0.26271
1812.85059	0.26518
1810.92202	0.26834
1808.99346	0.27046
1807.06489	0.27151
1805.13633	0.27304
1803.20776	0.27613
1801.27920	0.28023
1799.35063	0.28361
1797.42207	0.28565
1795.49351	0.28823
1793.56494	0.29264
1791.63638	0.29733
1789.70781	0.29880
1787.77925	0.29900
1785.85068	0.30149
1783.92212	0.30565
1781.99355	0.31035
1780.06499	0.31509
1778.13643	0.31926
1776.20786	0.32365
1774.27930	0.33007
1772.35073	0.33864
1770.42217	0.34483
1768.49360	0.34762
1766.56504	0.35050
1764.63647	0.35495
1762.70791	0.36174
1760.77935	0.37018
1758.85078	0.37717
1756.92222	0.38410
1754.99365	0.39152
1753.06509	0.39914
1751.13652	0.41025
1749.20796	0.42349
1747.27939	0.43352
1745.35083	0.44108
1743.42227	0.44985
1741.49370	0.46017
1739.56514	0.47232
1737.63657	0.48450
1735.70801	0.49678
1733.77944	0.51582
1731.85088	0.53483
1729.92231	0.54751
1727.99375	0.56084
1726.06519	0.57657
1724.13662	0.59531
1722.20806	0.61617
1720.27949	0.63671
1718.35093	0.66284
1716.42236	0.69836
1714.49380	0.72666
1712.56523	0.74778
1710.63667	0.77009
1708.70811	0.79643
1706.77954	0.82803
1704.85098	0.86528
1702.92241	0.89782
1700.99385	0.93106
1699.06528	0.97999
1697.13672	1.02299
1695.20815	1.06442
1693.27959	1.10430
1691.35103	1.13863
1689.42246	1.18072
1687.49390	1.22597
1685.56533	1.27161
1683.63677	1.33969
1681.70820	1.40462
1679.77964	1.44458
1677.85107	1.48454
1675.92251	1.53318
1673.99395	1.59428
1672.06538	1.64906
1670.13682	1.70224
1668.20825	1.76743
1666.27969	1.82020
1664.35112	1.86861
1662.42256	1.93044
1660.49399	1.99784
1658.56543	2.05012
1656.63687	2.09439
1654.70830	2.13784
1652.77974	2.20035
1650.85117	2.25368
1648.92261	2.27435
1646.99404	2.30133
1645.06548	2.32563
1643.13691	2.34064
1641.20835	2.35106
1639.27979	2.36272
1637.35122	2.37250
1635.42266	2.37364
1633.49409	2.36062
1631.56553	2.34247
1629.63696	2.32588
1627.70840	2.29985
1625.77983	2.26687
1623.85127	2.22427
1621.92271	2.17109
1619.99414	2.12208
1618.06558	2.07671
1616.13701	2.01392
1614.20845	1.94559
1612.27988	1.89152
1610.35132	1.83784
1608.42275	1.78171
1606.49419	1.72614
1604.56562	1.67456
1602.63706	1.62490
1600.70850	1.57646
1598.77993	1.53215
1596.85137	1.49109
1594.92280	1.45127
1592.99424	1.41222
1591.06567	1.37616
1589.13711	1.34239
1587.20854	1.31101
1585.27998	1.28250
1583.35142	1.25642
1581.42285	1.23280
1579.49429	1.21343
1577.56572	1.19803
1575.63716	1.17868
1573.70859	1.15825
1571.78003	1.14515
1569.85146	1.13453
1567.92290	1.12208
1565.99434	1.11172
1564.06577	1.10490
1562.13721	1.10157
1560.20864	1.10420
1558.28008	1.11055
1556.35151	1.10794
1554.42295	1.10323
1552.49438	1.10075
1550.56582	1.09865
1548.63726	1.09465
1546.70869	1.08904
1544.78013	1.08299
1542.85156	1.07584
1540.92300	1.06277
1538.99443	1.03301
1537.06587	1.00563
1535.13730	0.98900
1533.20874	0.97045
1531.28018	0.94913
1529.35161	0.93337
1527.42305	0.92081
1525.49448	0.90843
1523.56592	0.89794
1521.63735	0.88839
1519.70879	0.87664
1517.78022	0.86533
1515.85166	0.85228
1513.92310	0.83795
1511.99453	0.82672
1510.06597	0.81957
1508.13740	0.81540
1506.20884	0.80287
1504.28027	0.78394
1502.35171	0.77282
1500.42314	0.76632
1498.49458	0.76152
1496.56602	0.75492
1494.63745	0.74597
1492.70889	0.73964
1490.78032	0.73697
1488.85176	0.73353
1486.92319	0.72620
1484.99463	0.71900
1483.06606	0.71462
1481.13750	0.71217
1479.20894	0.71058
1477.28037	0.71069
1475.35181	0.71293
1473.42324	0.71548
1471.49468	0.71382
1469.56611	0.70828
1467.63755	0.70419
1465.70898	0.70264
1463.78042	0.70133
1461.85186	0.69982
1459.92329	0.70108
1457.99473	0.70544
1456.06616	0.70535
1454.13760	0.69841
1452.20903	0.69266
1450.28047	0.68909
1448.35190	0.68654
1446.42334	0.68312
1444.49478	0.67891
1442.56621	0.67536
1440.63765	0.67280
1438.70908	0.67147
1436.78052	0.67004
1434.85195	0.66619
1432.92339	0.66229
1430.99482	0.66039
1429.06626	0.65927
1427.13770	0.65827
1425.20913	0.65857
1423.28057	0.65990
1421.35200	0.66128
1419.42344	0.66320
1417.49487	0.66329
1415.56631	0.66014
1413.63774	0.65750
1411.70918	0.65663
1409.78062	0.65691
1407.85205	0.65808
1405.92349	0.66015
1403.99492	0.66161
1402.06636	0.66157
1400.13779	0.66167
1398.20923	0.66179
1396.28066	0.66013
1394.35210	0.65584
1392.42354	0.64977
1390.49497	0.64464
1388.56641	0.64115
1386.63784	0.63709
1384.70928	0.63132
1382.78071	0.62572
1380.85215	0.62123
1378.92358	0.61781
1376.99502	0.61561
1375.06646	0.61444
1373.13789	0.61286
1371.20933	0.61076
1369.28076	0.60938
1367.35220	0.60817
1365.42363	0.60698
1363.49507	0.60661
1361.56650	0.60561
1359.63794	0.60297
1357.70937	0.60064
1355.78081	0.59944
1353.85225	0.59855
1351.92368	0.59758
1349.99512	0.59684
1348.06655	0.59613
1346.13799	0.59517
1344.20942	0.59441
1342.28086	0.59448
1340.35229	0.59534
1338.42373	0.59528
1336.49517	0.59350
1334.56660	0.59170
1332.63804	0.59093
1330.70947	0.59092
1328.78091	0.59126
1326.85234	0.59169
1324.92378	0.59221
1322.99521	0.59300
1321.06665	0.59414
1319.13809	0.59515
1317.20952	0.59541
1315.28096	0.59524
1313.35239	0.59497
1311.42383	0.59425
1309.49526	0.59328
1307.56670	0.59250
1305.63813	0.59184
1303.70957	0.59120
1301.78101	0.59052
1299.85244	0.58965
1297.92388	0.58859
1295.99531	0.58742
1294.06675	0.58616
1292.13818	0.58479
1290.20962	0.58343
1288.28105	0.58215
1286.35249	0.58083
1284.42393	0.57954
1282.49536	0.57843
1280.56680	0.57738
1278.63823	0.57610
1276.70967	0.57475
1274.78110	0.57361
1272.85254	0.57275
1270.92397	0.57197
1268.99541	0.57109
1267.06685	0.57026
1265.13828	0.56956
1263.20972	0.56892
1261.28115	0.56824
1259.35259	0.56758
1257.42402	0.56699
1255.49546	0.56657
1253.56689	0.56642
1251.63833	0.56647
1249.70977	0.56662
1247.78120	0.56674
1245.85264	0.56680
1243.92407	0.56659
1241.99551	0.56587
1240.06694	0.56474
1238.13838	0.56327
1236.20981	0.56121
1234.28125	0.55885
1232.35269	0.55678
1230.42412	0.55502
1228.49556	0.55333
1226.56699	0.55154
1224.63843	0.54972
1222.70986	0.54808
1220.78130	0.54669
1218.85273	0.54547
1216.92417	0.54428
1214.99561	0.54316
1213.06704	0.54222
1211.13848	0.54140
1209.20991	0.54065
1207.28135	0.54002
1205.35278	0.53936
1203.42422	0.53849
1201.49565	0.53755
1199.56709	0.53668
1197.63853	0.53591
1195.70996	0.53528
1193.78140	0.53477
1191.85283	0.53436
1189.92427	0.53405
1187.99570	0.53390
1186.06714	0.53391
1184.13857	0.53405
1182.21001	0.53438
1180.28145	0.53501
1178.35288	0.53602
1176.42432	0.53740
1174.49575	0.53868
1172.56719	0.53927
1170.63862	0.53925
1168.71006	0.53897
1166.78149	0.53860
1164.85293	0.53820
1162.92437	0.53777
1160.99580	0.53721
1159.06724	0.53645
1157.13867	0.53554
1155.21011	0.53449
1153.28154	0.53315
1151.35298	0.53146
1149.42441	0.52938
1147.49585	0.52697
1145.56729	0.52438
1143.63872	0.52174
1141.71016	0.51935
1139.78159	0.51735
1137.85303	0.51566
1135.92446	0.51421
1133.99590	0.51295
1132.06733	0.51201
1130.13877	0.51149
1128.21021	0.51099
1126.28164	0.51001
1124.35308	0.50871
1122.42451	0.50759
1120.49595	0.50686
1118.56738	0.50640
1116.63882	0.50602
1114.71025	0.50567
1112.78169	0.50549
1110.85312	0.50569
1108.92456	0.50629
1106.99600	0.50712
1105.06743	0.50815
1103.13887	0.50958
1101.21030	0.51154
1099.28174	0.51384
1097.35317	0.51627
1095.42461	0.51902
1093.49604	0.52231
1091.56748	0.52624
1089.63892	0.53082
1087.71035	0.53606
1085.78179	0.54194
1083.85322	0.54839
1081.92466	0.55486
1079.99609	0.56012
1078.06753	0.56306
1076.13896	0.56346
1074.21040	0.56132
1072.28184	0.55680
1070.35327	0.55077
1068.42471	0.54412
1066.49614	0.53728
1064.56758	0.53083
1062.63901	0.52516
1060.71045	0.51988
1058.78188	0.51503
1056.85332	0.51098
1054.92476	0.50747
1052.99619	0.50425
1051.06763	0.50151
1049.13906	0.49921
1047.21050	0.49722
1045.28193	0.49559
1043.35337	0.49414
1041.42480	0.49265
1039.49624	0.49132
1037.56768	0.49040
1035.63911	0.48982
1033.71055	0.48934
1031.78198	0.48893
1029.85342	0.48866
1027.92485	0.48843
1025.99629	0.48829
1024.06772	0.48845
1022.13916	0.48897
1020.21060	0.48976
1018.28203	0.49064
1016.35347	0.49148
1014.42490	0.49242
1012.49634	0.49361
1010.56777	0.49494
1008.63921	0.49624
1006.71064	0.49763
1004.78208	0.49950
1002.85352	0.50192
1000.92495	0.50472
998.99639	0.50791
997.06782	0.51152
995.13926	0.51550
993.21069	0.51961
991.28213	0.52332
989.35356	0.52608
987.42500	0.52787
985.49644	0.52897
983.56787	0.52972
981.63931	0.53068
979.71074	0.53218
977.78218	0.53393
975.85361	0.53586
973.92505	0.53835
971.99648	0.54150
970.06792	0.54502
968.13936	0.54895
966.21079	0.55337
964.28223	0.55798
962.35366	0.56264
960.42510	0.56757
958.49653	0.57286
956.56797	0.57851
954.63940	0.58443
952.71084	0.59052
950.78228	0.59675
948.85371	0.60321
946.92515	0.60997
944.99658	0.61658
943.06802	0.62255
941.13945	0.62842
939.21089	0.63463
937.28232	0.64082
935.35376	0.64694
933.42520	0.65309
931.49663	0.65910
929.56807	0.66484
927.63950	0.67049
925.71094	0.67633
923.78237	0.68228
921.85381	0.68804
919.92524	0.69423
917.99668	0.70168
916.06812	0.70975
914.13955	0.71763
912.21099	0.72551
910.28242	0.73339
908.35386	0.74136
906.42529	0.74964
904.49673	0.75817
902.56816	0.76701
900.63960	0.77633
898.71104	0.78569
896.78247	0.79506
894.85391	0.80570
892.92534	0.81736
890.99678	0.82823
889.06821	0.83900
887.13965	0.85139
885.21108	0.86368
883.28252	0.87379
881.35396	0.88363
879.42539	0.89521
877.49683	0.90689
875.56826	0.91719
873.63970	0.92775
871.71113	0.93962
869.78257	0.95141
867.85400	0.96277
865.92544	0.97452
863.99687	0.98673
862.06831	0.99995
860.13975	1.01313
858.21118	1.02460
856.28262	1.03553
854.35405	1.04671
852.42549	1.05804
850.49692	1.07016
848.56836	1.08274
846.63979	1.09503
844.71123	1.10690
842.78267	1.11699
840.85410	1.12538
838.92554	1.13579
836.99697	1.14980
835.06841	1.16462
833.13984	1.17741
831.21128	1.18771
829.28271	1.19827
827.35415	1.21235
825.42559	1.22739
823.49702	1.23955
821.56846	1.25299
819.63989	1.26806
817.71133	1.27830
815.78276	1.29201
813.85420	1.31492
811.92563	1.33318
809.99707	1.34401
808.06851	1.35356
806.13994	1.35774
804.21138	1.35628
802.28281	1.35770
800.35425	1.36795
798.42568	1.38510
796.49712	1.40069
794.56855	1.42266
792.63999	1.47363
790.71143	1.52297
788.78286	1.50833
786.85430	1.49349
784.92573	1.53640
782.99717	1.58763
781.06860	1.61885
779.14004	1.61459
777.21147	1.59215
775.28291	1.59998
773.35435	1.60573
771.42578	1.63401
769.49722	1.69854
767.56865	2.13179
765.64009	4.59384
763.71152	4.58227
761.78296	1.79832
759.85439	1.62219
757.92583	1.77309
755.99727	4.53598
754.06870	2.84721
752.14014	1.73309
750.21157	1.58547
748.28301	1.55615
746.35444	1.47429
744.42588	1.36930
742.49731	1.34429
740.56875	1.28481
738.64019	1.07948
736.71162	0.96223
734.78306	0.96416
732.85449	0.90455
730.92593	0.73318
728.99736	0.69238
727.06880	0.94426
725.14023	1.21483
723.21167	0.58062
721.28311	0.29836
719.35454	0.21934
717.42598	0.31575
715.49741	0.42752
713.56885	0.25718
711.64028	0.01321
709.71172	0.00071
707.78315	0.21449
705.85459	0.27369
703.92603	0.26637
701.99746	0.28171
700.06890	0.29827
698.14033	0.36131
696.21177	0.41919
694.28320	0.37836
692.35464	0.40707
690.42607	0.50120
688.49751	0.49489
686.56895	0.45757
684.64038	0.42660
682.71182	0.41908
680.78325	0.43454
678.85469	0.39210
676.92612	0.29622
674.99756	0.23661
673.06899	0.22276
671.14043	0.23002
669.21187	0.27142
667.28330	0.34513
665.35474	0.41000
663.42617	0.35570
661.49761	0.26954
659.56904	0.29688
657.64048	0.43850
655.71191	0.50282
653.78335	0.46534
651.85479	0.45439
649.92622	0.45707
647.99766	0.53025
646.06909	0.63597
644.14053	0.52954
642.21196	0.37839
640.28340	0.34189
638.35483	0.31076
636.42627	0.20913
634.49771	0.18568
632.56914	0.29106
630.64058	0.37994
628.71201	0.35648
626.78345	0.28083
624.85488	0.22233
622.92632	0.20186
620.99775	0.23596
619.06919	0.30475
617.14062	0.36525
615.21206	0.41594
613.28350	0.37524
611.35493	0.25973
609.42637	0.24443
607.49780	0.34121
605.56924	0.40441
603.64067	0.35222
601.71211	0.28940
599.78354	0.23080
597.85498	0.18268
595.92642	0.13781
593.99785	0.12337
592.06929	0.23207
590.14072	0.48118
588.21216	0.64897
586.28359	0.46503
584.35503	0.32080
582.42646	0.31007
580.49790	0.40315
578.56934	0.45913
576.64077	0.39867
574.71221	0.31161
572.78364	0.24792
570.85508	0.22175
568.92651	0.20085
566.99795	0.18011
565.06938	0.19054
563.14082	0.20732
561.21226	0.22874
559.28369	0.23568
557.35513	0.18900
555.42656	0.16090
553.49800	0.20289
551.56943	0.26461
549.64087	0.30411
547.71230	0.30391
545.78374	0.27889
543.85518	0.30493
541.92661	0.38931
539.99805	0.36377
538.06948	0.26193
536.14092	0.26632
534.21235	0.36273
532.28379	0.39458
530.35522	0.31443
528.42666	0.23054
526.49810	0.20421
524.56953	0.27143
522.64097	0.38245
520.71240	0.39011
518.78384	0.32743
516.85527	0.26003
514.92671	0.21668
512.99814	0.21043
511.06958	0.20845
509.14102	0.19747
507.21245	0.21357
505.28389	0.26104
503.35532	0.31513
501.42676	0.33834
499.49819	0.29074
