3997.91411	0.06064
3995.98555	0.06084
3994.05698	0.06089
3992.12842	0.06092
3990.19985	0.06122
3988.27129	0.06178
3986.34272	0.06240
3984.41416	0.06299
3982.48560	0.06343
3980.55703	0.06378
3978.62847	0.06411
3976.69990	0.06429
3974.77134	0.06437
3972.84277	0.06458
3970.91421	0.06485
3968.98564	0.06490
3967.05708	0.06480
3965.12852	0.06459
3963.19995	0.06439
3961.27139	0.06461
3959.34282	0.06499
3957.41426	0.06501
3955.48569	0.06493
3953.55713	0.06511
3951.62856	0.06557
3949.70000	0.06621
3947.77144	0.06654
3945.84287	0.06630
3943.91431	0.06621
3941.98574	0.06640
3940.05718	0.06591
3938.12861	0.06505
3936.20005	0.06489
3934.27148	0.06537
3932.34292	0.06602
3930.41436	0.06650
3928.48579	0.06653
3926.55723	0.06649
3924.62866	0.06678
3922.70010	0.06674
3920.77153	0.06620
3918.84297	0.06590
3916.91440	0.06577
3914.98584	0.06543
3913.05728	0.06522
3911.12871	0.06538
3909.20015	0.06539
3907.27158	0.06534
3905.34302	0.06560
3903.41445	0.06593
3901.48589	0.06637
3899.55732	0.06702
3897.62876	0.06696
3895.70020	0.06604
3893.77163	0.06539
3891.84307	0.06567
3889.91450	0.06624
3887.98594	0.06630
3886.05737	0.06659
3884.12881	0.06741
3882.20024	0.06771
3880.27168	0.06745
3878.34312	0.06689
3876.41455	0.06634
3874.48599	0.06665
3872.55742	0.06768
3870.62886	0.06868
3868.70029	0.06939
3866.77173	0.06928
3864.84316	0.06908
3862.91460	0.06941
3860.98604	0.06939
3859.05747	0.06908
3857.12891	0.06933
3855.20034	0.07038
3853.27178	0.07248
3851.34321	0.07397
3849.41465	0.07291
3847.48608	0.07168
3845.55752	0.07168
3843.62896	0.07269
3841.70039	0.07391
3839.77183	0.07517
3837.84326	0.07647
3835.91470	0.07683
3833.98613	0.07672
3832.05757	0.07712
3830.12900	0.07757
3828.20044	0.07784
3826.27187	0.07839
3824.34331	0.07921
3822.41475	0.08019
3820.48618	0.08195
3818.55762	0.08364
3816.62905	0.08445
3814.70049	0.08519
3812.77192	0.08549
3810.84336	0.08540
3808.91479	0.08576
3806.98623	0.08714
3805.05767	0.08903
3803.12910	0.09045
3801.20054	0.09208
3799.27197	0.09374
3797.34341	0.09452
3795.41484	0.09533
3793.48628	0.09622
3791.55771	0.09714
3789.62915	0.09835
3787.70059	0.09956
3785.77202	0.10088
3783.84346	0.10251
3781.91489	0.10410
3779.98633	0.10571
3778.05776	0.10762
3776.12920	0.10916
3774.20063	0.11020
3772.27207	0.11142
3770.34351	0.11349
3768.41494	0.11614
3766.48638	0.11821
3764.55781	0.11993
3762.62925	0.12176
3760.70068	0.12387
3758.77212	0.12672
3756.84355	0.12959
3754.91499	0.13165
3752.98643	0.13386
3751.05786	0.13769
3749.12930	0.14248
3747.20073	0.14492
3745.27217	0.14629
3743.34360	0.14947
3741.41504	0.15320
3739.48647	0.15603
3737.55791	0.15956
3735.62935	0.16504
3733.70078	0.17149
3731.77222	0.17628
3729.84365	0.17984
3727.91509	0.18365
3725.98652	0.18909
3724.05796	0.19591
3722.12939	0.20252
3720.20083	0.20922
3718.27227	0.21626
3716.34370	0.22328
3714.41514	0.23057
3712.48657	0.24008
3710.55801	0.25401
3708.62944	0.26870
3706.70088	0.28016
3704.77231	0.29084
3702.84375	0.30362
3700.91519	0.32041
3698.98662	0.33913
3697.05806	0.35704
3695.12949	0.37558
3693.20093	0.39505
3691.27236	0.41629
3689.34380	0.44369
3687.41523	0.47786
3685.48667	0.50887
3683.55811	0.53580
3681.62954	0.56436
3679.70098	0.59609
3677.77241	0.62931
3675.84385	0.66854
3673.91528	0.72113
3671.98672	0.76531
3670.05815	0.80452
3668.12959	0.85721
3666.20103	0.90617
3664.27246	0.94750
3662.34390	0.99142
3660.41533	1.03866
3658.48677	1.08539
3656.55820	1.13535
3654.62964	1.19113
3652.70107	1.23819
3650.77251	1.27908
3648.84395	1.33465
3646.91538	1.40198
3644.98682	1.45219
3643.05825	1.49148
3641.12969	1.53229
3639.20112	1.57713
3637.27256	1.62185
3635.34399	1.66515
3633.41543	1.70887
3631.48687	1.75045
3629.55830	1.79233
3627.62974	1.84556
3625.70117	1.89589
3623.77261	1.93104
3621.84404	1.96451
3619.91548	2.00257
3617.98691	2.04796
3616.05835	2.09193
3614.12979	2.12987
3612.20122	2.17022
3610.27266	2.21084
3608.34409	2.25132
3606.41553	2.29389
3604.48696	2.33339
3602.55840	2.36831
3600.62983	2.40560
3598.70127	2.44746
3596.77271	2.48949
3594.84414	2.53080
3592.91558	2.57203
3590.98701	2.61055
3589.05845	2.64658
3587.12988	2.69056
3585.20132	2.74058
3583.27275	2.78298
3581.34419	2.82115
3579.41562	2.86204
3577.48706	2.90490
3575.55850	2.94758
3573.62993	2.99169
3571.70137	3.03513
3569.77280	3.07642
3567.84424	3.11996
3565.91567	3.17296
3563.98711	3.22482
3562.05854	3.26633
3560.12998	3.30679
3558.20142	3.35027
3556.27285	3.39465
3554.34429	3.43934
3552.41572	3.48590
3550.48716	3.53200
3548.55859	3.57767
3546.63003	3.62556
3544.70146	3.67642
3542.77290	3.72625
3540.84434	3.77217
3538.91577	3.81665
3536.98721	3.86171
3535.05864	3.91112
3533.13008	3.96209
3531.20151	4.00883
3529.27295	4.05412
3527.34438	4.10306
3525.41582	4.15064
3523.48726	4.19430
3521.55869	4.24325
3519.63013	4.29774
3517.70156	4.34924
3515.77300	4.39709
3513.84443	4.44655
3511.91587	4.49581
3509.98730	4.54348
3508.05874	4.59119
3506.13018	4.63726
3504.20161	4.68401
3502.27305	4.73501
3500.34448	4.78625
3498.41592	4.83344
3496.48735	4.87900
3494.55879	4.92715
3492.63022	4.98059
3490.70166	5.03426
3488.77310	5.08353
3486.84453	5.12959
3484.91597	5.17414
3482.98740	5.21854
3481.05884	5.26437
3479.13027	5.31717
3477.20171	5.37594
3475.27314	5.42887
3473.34458	5.47247
3471.41602	5.51341
3469.48745	5.55758
3467.55889	5.60565
3465.63032	5.64749
3463.70176	5.68329
3461.77319	5.72862
3459.84463	5.78614
3457.91606	5.84629
3455.98750	5.90344
3454.05894	5.95420
3452.13037	6.00307
3450.20181	6.05981
3448.27324	6.11980
3446.34468	6.17140
3444.41611	6.21757
3442.48755	6.26989
3440.55898	6.31991
3438.63042	6.36269
3436.70186	6.40240
3434.77329	6.43555
3432.84473	6.46970
3430.91616	6.52403
3428.98760	6.59826
3427.05903	6.67117
3425.13047	6.74173
3423.20190	6.79850
3421.27334	6.82512
3419.34478	6.84220
3417.41621	6.89129
3415.48765	6.95548
3413.55908	6.98565
3411.63052	7.01241
3409.70195	7.05394
3407.77339	7.09139
3405.84482	7.12669
3403.91626	7.16640
3401.98770	7.19778
3400.05913	7.23231
3398.13057	7.29232
3396.20200	7.34842
3394.27344	7.38841
3392.34487	7.41772
3390.41631	7.45023
3388.48774	7.51386
3386.55918	7.58787
3384.63062	7.59440
3382.70205	7.56785
3380.77349	7.60281
3378.84492	7.65435
3376.91636	7.65251
3374.98779	7.63582
3373.05923	7.66084
3371.13066	7.70025
3369.20210	7.74352
3367.27354	7.81303
3365.34497	7.89691
3363.41641	7.96154
3361.48784	7.98420
3359.55928	7.97134
3357.63071	7.95482
3355.70215	7.97873
3353.77358	8.01150
3351.84502	8.00749
3349.91646	7.96071
3347.98789	7.91832
3346.05933	7.91370
3344.13076	7.93596
3342.20220	7.99096
3340.27363	8.06860
3338.34507	8.14701
3336.41650	8.16931
3334.48794	8.10448
3332.55937	8.01253
3330.63081	7.99161
3328.70225	8.05439
3326.77368	8.15694
3324.84512	8.24504
3322.91655	8.23204
3320.98799	8.16110
3319.05942	8.11376
3317.13086	8.11239
3315.20229	8.14609
3313.27373	8.18251
3311.34517	8.20606
3309.41660	8.22215
3307.48804	8.22071
3305.55947	8.23565
3303.63091	8.28629
3301.70234	8.26413
3299.77378	8.16292
3297.84521	8.08632
3295.91665	8.09054
3293.98809	8.12628
3292.05952	8.13712
3290.13096	8.13852
3288.20239	8.12714
3286.27383	8.19396
3284.34526	8.41292
3282.41670	8.60530
3280.48813	8.61239
3278.55957	8.56257
3276.63101	8.50709
3274.70244	8.47472
3272.77388	8.47609
3270.84531	8.43543
3268.91675	8.38407
3266.98818	8.38544
3265.05962	8.41995
3263.13105	8.40646
3261.20249	8.32298
3259.27393	8.23248
3257.34536	8.18499
3255.41680	8.18695
3253.48823	8.23381
3251.55967	8.27815
3249.63110	8.26434
3247.70254	8.21340
3245.77397	8.18910
3243.84541	8.27239
3241.91685	8.42421
3239.98828	8.48539
3238.05972	8.40877
3236.13115	8.30561
3234.20259	8.26025
3232.27402	8.26741
3230.34546	8.24683
3228.41689	8.13755
3226.48833	8.05250
3224.55977	8.06695
3222.63120	8.10540
3220.70264	8.10151
3218.77407	8.08052
3216.84551	8.07982
3214.91694	8.08624
3212.98838	8.11216
3211.05981	8.16339
3209.13125	8.11815
3207.20269	7.98566
3205.27412	7.94438
3203.34556	7.98033
3201.41699	7.94475
3199.48843	7.82680
3197.55986	7.74548
3195.63130	7.74814
3193.70273	7.76257
3191.77417	7.74219
3189.84561	7.71506
3187.91704	7.66424
3185.98848	7.56087
3184.05991	7.46928
3182.13135	7.43891
3180.20278	7.41369
3178.27422	7.32489
3176.34565	7.19017
3174.41709	7.08144
3172.48853	7.03431
3170.55996	7.00833
3168.63140	6.96551
3166.70283	6.92077
3164.77427	6.87893
3162.84570	6.83376
3160.91714	6.79143
3158.98857	6.74477
3157.06001	6.67589
3155.13145	6.59874
3153.20288	6.53127
3151.27432	6.47165
3149.34575	6.41711
3147.41719	6.35720
3145.48862	6.27973
3143.56006	6.18525
3141.63149	6.10003
3139.70293	6.03854
3137.77437	5.97884
3135.84580	5.90944
3133.91724	5.83987
3131.98867	5.77191
3130.06011	5.70385
3128.13154	5.63588
3126.20298	5.56179
3124.27441	5.48299
3122.34585	5.41022
3120.41729	5.34442
3118.48872	5.27859
3116.56016	5.20940
3114.63159	5.13599
3112.70303	5.06336
3110.77446	4.99760
3108.84590	4.93418
3106.91733	4.86850
3104.98877	4.80195
3103.06021	4.73551
3101.13164	4.66674
3099.20308	4.59628
3097.27451	4.52743
3095.34595	4.45999
3093.41738	4.39597
3091.48882	4.33525
3089.56025	4.27299
3087.63169	4.20901
3085.70312	4.14555
3083.77456	4.08309
3081.84600	4.02252
3079.91743	3.96242
3077.98887	3.89881
3076.06030	3.83353
3074.13174	3.77230
3072.20317	3.71552
3070.27461	3.66057
3068.34604	3.60435
3066.41748	3.54574
3064.48892	3.48929
3062.56035	3.43650
3060.63179	3.38384
3058.70322	3.32968
3056.77466	3.27438
3054.84609	3.21942
3052.91753	3.16569
3050.98896	3.11293
3049.06040	3.06138
3047.13184	3.01093
3045.20327	2.96123
3043.27471	2.91294
3041.34614	2.86561
3039.41758	2.81827
3037.48901	2.77170
3035.56045	2.72514
3033.63188	2.67746
3031.70332	2.63043
3029.77476	2.58599
3027.84619	2.54350
3025.91763	2.50048
3023.98906	2.45608
3022.06050	2.41222
3020.13193	2.37033
3018.20337	2.33012
3016.27480	2.29059
3014.34624	2.25101
3012.41768	2.21151
3010.48911	2.17258
3008.56055	2.13462
3006.63198	2.09773
3004.70342	2.06152
3002.77485	2.02567
3000.84629	1.99076
2998.91772	1.95707
2996.98916	1.92380
2995.06060	1.89095
2993.13203	1.85916
2991.20347	1.82816
2989.27490	1.79753
2987.34634	1.76762
2985.41777	1.73868
2983.48921	1.71027
2981.56064	1.68213
2979.63208	1.65474
2977.70352	1.62809
2975.77495	1.60186
2973.84639	1.57617
2971.91782	1.55092
2969.98926	1.52596
2968.06069	1.50137
2966.13213	1.47732
2964.20356	1.45356
2962.27500	1.42945
2960.34644	1.40491
2958.41787	1.38049
2956.48931	1.35634
2954.56074	1.33242
2952.63218	1.30873
2950.70361	1.28510
2948.77505	1.26168
2946.84648	1.23890
2944.91792	1.21696
2942.98936	1.19585
2941.06079	1.17528
2939.13223	1.15481
2937.20366	1.13452
2935.27510	1.11456
2933.34653	1.09487
2931.41797	1.07557
2929.48940	1.05663
2927.56084	1.03773
2925.63228	1.01888
2923.70371	1.00030
2921.77515	0.98228
2919.84658	0.96488
2917.91802	0.94756
2915.98945	0.93008
2914.06089	0.91283
2912.13232	0.89605
2910.20376	0.87989
2908.27520	0.86433
2906.34663	0.84917
2904.41807	0.83423
2902.48950	0.81961
2900.56094	0.80568
2898.63237	0.79227
2896.70381	0.77894
2894.77524	0.76584
2892.84668	0.75336
2890.91812	0.74138
2888.98955	0.72963
2887.06099	0.71803
2885.13242	0.70670
2883.20386	0.69601
2881.27529	0.68601
2879.34673	0.67620
2877.41816	0.66627
2875.48960	0.65638
2873.56104	0.64642
2871.63247	0.63605
2869.70391	0.62503
2867.77534	0.61343
2865.84678	0.60133
2863.91821	0.58914
2861.98965	0.57759
2860.06108	0.56691
2858.13252	0.55681
2856.20396	0.54701
2854.27539	0.53753
2852.34683	0.52835
2850.41826	0.51935
2848.48970	0.51056
2846.56113	0.50215
2844.63257	0.49411
2842.70400	0.48644
2840.77544	0.47940
2838.84687	0.47301
2836.91831	0.46689
2834.98975	0.46082
2833.06118	0.45470
2831.13262	0.44851
2829.20405	0.44234
2827.27549	0.43625
2825.34692	0.43011
2823.41836	0.42388
2821.48979	0.41770
2819.56123	0.41160
2817.63267	0.40557
2815.70410	0.39968
2813.77554	0.39402
2811.84697	0.38849
2809.91841	0.38292
2807.98984	0.37724
2806.06128	0.37156
2804.13271	0.36614
2802.20415	0.36112
2800.27559	0.35632
2798.34702	0.35153
2796.41846	0.34673
2794.48989	0.34188
2792.56133	0.33701
2790.63276	0.33219
2788.70420	0.32753
2786.77563	0.32301
2784.84707	0.31848
2782.91851	0.31404
2780.98994	0.30984
2779.06138	0.30576
2777.13281	0.30159
2775.20425	0.29729
2773.27568	0.29321
2771.34712	0.28966
2769.41855	0.28625
2767.48999	0.28263
2765.56143	0.27897
2763.63286	0.27533
2761.70430	0.27167
2759.77573	0.26808
2757.84717	0.26469
2755.91860	0.26149
2753.99004	0.25836
2752.06147	0.25534
2750.13291	0.25246
2748.20435	0.24961
2746.27578	0.24671
2744.34722	0.24377
2742.41865	0.24087
2740.49009	0.23811
2738.56152	0.23554
2736.63296	0.23308
2734.70439	0.23053
2732.77583	0.22785
2730.84727	0.22535
2728.91870	0.22307
2726.99014	0.22077
2725.06157	0.21846
2723.13301	0.21632
2721.20444	0.21432
2719.27588	0.21235
2717.34731	0.21038
2715.41875	0.20839
2713.49019	0.20633
2711.56162	0.20421
2709.63306	0.20220
2707.70449	0.20050
2705.77593	0.19903
2703.84736	0.19753
2701.91880	0.19586
2699.99023	0.19408
2698.06167	0.19235
2696.13311	0.19079
2694.20454	0.18939
2692.27598	0.18812
2690.34741	0.18688
2688.41885	0.18549
2686.49028	0.18398
2684.56172	0.18257
2682.63315	0.18137
2680.70459	0.18031
2678.77603	0.17922
2676.84746	0.17800
2674.91890	0.17671
2672.99033	0.17548
2671.06177	0.17441
2669.13320	0.17344
2667.20464	0.17243
2665.27607	0.17145
2663.34751	0.17051
2661.41895	0.16954
2659.49038	0.16853
2657.56182	0.16757
2655.63325	0.16667
2653.70469	0.16587
2651.77612	0.16526
2649.84756	0.16475
2647.91899	0.16410
2645.99043	0.16338
2644.06187	0.16277
2642.13330	0.16222
2640.20474	0.16172
2638.27617	0.16131
2636.34761	0.16081
2634.41904	0.16017
2632.49048	0.15968
2630.56191	0.15937
2628.63335	0.15896
2626.70479	0.15834
2624.77622	0.15772
2622.84766	0.15731
2620.91909	0.15706
2618.99053	0.15692
2617.06196	0.15676
2615.13340	0.15650
2613.20483	0.15625
2611.27627	0.15606
2609.34771	0.15582
2607.41914	0.15566
2605.49058	0.15562
2603.56201	0.15559
2601.63345	0.15556
2599.70488	0.15554
2597.77632	0.15555
2595.84775	0.15559
2593.91919	0.15558
2591.99062	0.15554
2590.06206	0.15558
2588.13350	0.15564
2586.20493	0.15564
2584.27637	0.15576
2582.34780	0.15603
2580.41924	0.15632
2578.49067	0.15652
2576.56211	0.15669
2574.63354	0.15693
2572.70498	0.15725
2570.77642	0.15768
2568.84785	0.15813
2566.91929	0.15842
2564.99072	0.15865
2563.06216	0.15903
2561.13359	0.15941
2559.20503	0.15969
2557.27646	0.16010
2555.34790	0.16071
2553.41934	0.16133
2551.49077	0.16186
2549.56221	0.16239
2547.63364	0.16301
2545.70508	0.16365
2543.77651	0.16419
2541.84795	0.16468
2539.91938	0.16518
2537.99082	0.16571
2536.06226	0.16632
2534.13369	0.16698
2532.20513	0.16768
2530.27656	0.16837
2528.34800	0.16896
2526.41943	0.16959
2524.49087	0.17040
2522.56230	0.17125
2520.63374	0.17198
2518.70518	0.17260
2516.77661	0.17332
2514.84805	0.17411
2512.91948	0.17485
2510.99092	0.17560
2509.06235	0.17635
2507.13379	0.17704
2505.20522	0.17776
2503.27666	0.17850
2501.34810	0.17925
2499.41953	0.18014
2497.49097	0.18112
2495.56240	0.18203
2493.63384	0.18283
2491.70527	0.18368
2489.77671	0.18460
2487.84814	0.18544
2485.91958	0.18624
2483.99102	0.18699
2482.06245	0.18770
2480.13389	0.18853
2478.20532	0.18954
2476.27676	0.19050
2474.34819	0.19133
2472.41963	0.19212
2470.49106	0.19290
2468.56250	0.19372
2466.63394	0.19463
2464.70537	0.19558
2462.77681	0.19650
2460.84824	0.19737
2458.91968	0.19830
2456.99111	0.19937
2455.06255	0.20045
2453.13398	0.20133
2451.20542	0.20206
2449.27686	0.20284
2447.34829	0.20374
2445.41973	0.20478
2443.49116	0.20592
2441.56260	0.20707
2439.63403	0.20818
2437.70547	0.20918
2435.77690	0.21011
2433.84834	0.21107
2431.91978	0.21201
2429.99121	0.21294
2428.06265	0.21394
2426.13408	0.21501
2424.20552	0.21618
2422.27695	0.21742
2420.34839	0.21859
2418.41982	0.21972
2416.49126	0.22091
2414.56270	0.22210
2412.63413	0.22313
2410.70557	0.22412
2408.77700	0.22523
2406.84844	0.22645
2404.91987	0.22771
2402.99131	0.22891
2401.06274	0.23007
2399.13418	0.23124
2397.20562	0.23249
2395.27705	0.23390
2393.34849	0.23531
2391.41992	0.23660
2389.49136	0.23787
2387.56279	0.23928
2385.63423	0.24079
2383.70566	0.24239
2381.77710	0.24414
2379.84854	0.24612
2377.91997	0.24820
2375.99141	0.25016
2374.06284	0.25233
2372.13428	0.25507
2370.20571	0.25795
2368.27715	0.26041
2366.34858	0.26265
2364.42002	0.26488
2362.49146	0.26649
2360.56289	0.26770
2358.63433	0.26902
2356.70576	0.27001
2354.77720	0.27158
2352.84863	0.27348
2350.92007	0.27380
2348.99150	0.27344
2347.06294	0.27388
2345.13437	0.27571
2343.20581	0.27874
2341.27725	0.28126
2339.34868	0.28260
2337.42012	0.28386
2335.49155	0.28564
2333.56299	0.28743
2331.63442	0.28910
2329.70586	0.29076
2327.77729	0.29223
2325.84873	0.29349
2323.92017	0.29479
2321.99160	0.29604
2320.06304	0.29730
2318.13447	0.29896
2316.20591	0.30073
2314.27734	0.30227
2312.34878	0.30374
2310.42021	0.30510
2308.49165	0.30620
2306.56309	0.30748
2304.63452	0.30904
2302.70596	0.31057
2300.77739	0.31216
2298.84883	0.31393
2296.92026	0.31577
2294.99170	0.31754
2293.06313	0.31914
2291.13457	0.32078
2289.20601	0.32257
2287.27744	0.32435
2285.34888	0.32612
2283.42031	0.32798
2281.49175	0.32986
2279.56318	0.33169
2277.63462	0.33364
2275.70605	0.33582
2273.77749	0.33802
2271.84893	0.34013
2269.92036	0.34225
2267.99180	0.34437
2266.06323	0.34653
2264.13467	0.34877
2262.20610	0.35099
2260.27754	0.35310
2258.34897	0.35518
2256.42041	0.35727
2254.49185	0.35938
2252.56328	0.36155
2250.63472	0.36378
2248.70615	0.36601
2246.77759	0.36822
2244.84902	0.37043
2242.92046	0.37261
2240.99189	0.37479
2239.06333	0.37703
2237.13477	0.37936
2235.20620	0.38165
2233.27764	0.38392
2231.34907	0.38620
2229.42051	0.38842
2227.49194	0.39063
2225.56338	0.39292
2223.63481	0.39518
2221.70625	0.39737
2219.77769	0.39952
2217.84912	0.40166
2215.92056	0.40385
2213.99199	0.40611
2212.06343	0.40838
2210.13486	0.41051
2208.20630	0.41259
2206.27773	0.41475
2204.34917	0.41690
2202.42061	0.41891
2200.49204	0.42091
2198.56348	0.42303
2196.63491	0.42510
2194.70635	0.42707
2192.77778	0.42900
2190.84922	0.43094
2188.92065	0.43288
2186.99209	0.43469
2185.06353	0.43636
2183.13496	0.43808
2181.20640	0.43989
2179.27783	0.44161
2177.34927	0.44319
2175.42070	0.44471
2173.49214	0.44616
2171.56357	0.44761
2169.63501	0.44910
2167.70645	0.45054
2165.77788	0.45184
2163.84932	0.45305
2161.92075	0.45421
2159.99219	0.45539
2158.06362	0.45652
2156.13506	0.45741
2154.20649	0.45815
2152.27793	0.45898
2150.34937	0.45985
2148.42080	0.46057
2146.49224	0.46116
2144.56367	0.46162
2142.63511	0.46193
2140.70654	0.46223
2138.77798	0.46260
2136.84941	0.46287
2134.92085	0.46297
2132.99229	0.46295
2131.06372	0.46284
2129.13516	0.46271
2127.20659	0.46259
2125.27803	0.46238
2123.34946	0.46197
2121.42090	0.46146
2119.49233	0.46092
2117.56377	0.46036
2115.63521	0.45973
2113.70664	0.45902
2111.77808	0.45820
2109.84951	0.45724
2107.92095	0.45615
2105.99238	0.45501
2104.06382	0.45377
2102.13525	0.45239
2100.20669	0.45103
2098.27812	0.44962
2096.34956	0.44813
2094.42100	0.44667
2092.49243	0.44516
2090.56387	0.44349
2088.63530	0.44168
2086.70674	0.43976
2084.77817	0.43785
2082.84961	0.43602
2080.92104	0.43415
2078.99248	0.43212
2077.06392	0.43000
2075.13535	0.42787
2073.20679	0.42567
2071.27822	0.42340
2069.34966	0.42107
2067.42109	0.41875
2065.49253	0.41650
2063.56396	0.41414
2061.63540	0.41164
2059.70684	0.40908
2057.77827	0.40655
2055.84971	0.40405
2053.92114	0.40158
2051.99258	0.39905
2050.06401	0.39640
2048.13545	0.39372
2046.20688	0.39103
2044.27832	0.38833
2042.34976	0.38556
2040.42119	0.38273
2038.49263	0.37996
2036.56406	0.37727
2034.63550	0.37452
2032.70693	0.37172
2030.77837	0.36896
2028.84980	0.36618
2026.92124	0.36338
2024.99268	0.36054
2023.06411	0.35767
2021.13555	0.35480
2019.20698	0.35201
2017.27842	0.34923
2015.34985	0.34642
2013.42129	0.34370
2011.49272	0.34101
2009.56416	0.33825
2007.63560	0.33545
2005.70703	0.33273
2003.77847	0.33009
2001.84990	0.32745
1999.92134	0.32477
1997.99277	0.32211
1996.06421	0.31950
1994.13564	0.31696
1992.20708	0.31451
1990.27852	0.31205
1988.34995	0.30952
1986.42139	0.30696
1984.49282	0.30448
1982.56426	0.30209
1980.63569	0.29973
1978.70713	0.29739
1976.77856	0.29511
1974.85000	0.29296
1972.92144	0.29079
1970.99287	0.28860
1969.06431	0.28655
1967.13574	0.28461
1965.20718	0.28258
1963.27861	0.28052
1961.35005	0.27853
1959.42148	0.27658
1957.49292	0.27465
1955.56436	0.27274
1953.63579	0.27094
1951.70723	0.26926
1949.77866	0.26767
1947.85010	0.26607
1945.92153	0.26449
1943.99297	0.26303
1942.06440	0.26156
1940.13584	0.25994
1938.20728	0.25833
1936.27871	0.25691
1934.35015	0.25565
1932.42158	0.25444
1930.49302	0.25320
1928.56445	0.25201
1926.63589	0.25092
1924.70732	0.24994
1922.77876	0.24898
1920.85020	0.24798
1918.92163	0.24712
1916.99307	0.24629
1915.06450	0.24529
1913.13594	0.24430
1911.20737	0.24352
1909.27881	0.24281
1907.35024	0.24206
1905.42168	0.24133
1903.49312	0.24071
1901.56455	0.24019
1899.63599	0.23968
1897.70742	0.23923
1895.77886	0.23891
1893.85029	0.23866
1891.92173	0.23834
1889.99316	0.23811
1888.06460	0.23790
1886.13604	0.23755
1884.20747	0.23719
1882.27891	0.23694
1880.35034	0.23683
1878.42178	0.23677
1876.49321	0.23678
1874.56465	0.23684
1872.63608	0.23696
1870.70752	0.23722
1868.77896	0.23775
1866.85039	0.23801
1864.92183	0.23781
1862.99326	0.23772
1861.06470	0.23795
1859.13613	0.23834
1857.20757	0.23869
1855.27900	0.23909
1853.35044	0.23952
1851.42187	0.24001
1849.49331	0.24059
1847.56475	0.24133
1845.63618	0.24227
1843.70762	0.24336
1841.77905	0.24419
1839.85049	0.24465
1837.92192	0.24538
1835.99336	0.24632
1834.06479	0.24720
1832.13623	0.24806
1830.20767	0.24936
1828.27910	0.25090
1826.35054	0.25207
1824.42197	0.25336
1822.49341	0.25463
1820.56484	0.25586
1818.63628	0.25727
1816.70771	0.25897
1814.77915	0.26063
1812.85059	0.26236
1810.92202	0.26434
1808.99346	0.26641
1807.06489	0.26846
1805.13633	0.27038
1803.20776	0.27241
1801.27920	0.27476
1799.35063	0.27753
1797.42207	0.28020
1795.49351	0.28273
1793.56494	0.28554
1791.63638	0.28908
1789.70781	0.29254
1787.77925	0.29523
1785.85068	0.29840
1783.92212	0.30216
1781.99355	0.30617
1780.06499	0.31036
1778.13643	0.31461
1776.20786	0.31861
1774.27930	0.32286
1772.35073	0.32857
1770.42217	0.33485
1768.49360	0.34027
1766.56504	0.34547
1764.63647	0.35080
1762.70791	0.35672
1760.77935	0.36424
1758.85078	0.37144
1756.92222	0.37874
1754.99365	0.38666
1753.06509	0.39384
1751.13652	0.40226
1749.20796	0.41271
1747.27939	0.42305
1745.35083	0.43233
1743.42227	0.44214
1741.49370	0.45278
1739.56514	0.46494
1737.63657	0.47698
1735.70801	0.48773
1733.77944	0.50390
1731.85088	0.52326
1729.92231	0.53877
1727.99375	0.55451
1726.06519	0.57160
1724.13662	0.59036
1722.20806	0.61050
1720.27949	0.62914
1718.35093	0.65073
1716.42236	0.68203
1714.49380	0.71241
1712.56523	0.73773
1710.63667	0.76236
1708.70811	0.78861
1706.77954	0.81810
1704.85098	0.85303
1702.92241	0.88468
1700.99385	0.91638
1699.06528	0.96270
1697.13672	1.00565
1695.20815	1.05037
1693.27959	1.09480
1691.35103	1.13108
1689.42246	1.17271
1687.49390	1.21662
1685.56533	1.25923
1683.63677	1.32431
1681.70820	1.39297
1679.77964	1.43770
1677.85107	1.47964
1675.92251	1.52809
1673.99395	1.58815
1672.06538	1.64244
1670.13682	1.69599
1668.20825	1.76487
1666.27969	1.82201
1664.35112	1.87147
1662.42256	1.93418
1660.49399	2.00561
1658.56543	2.06202
1656.63687	2.10788
1654.70830	2.14927
1652.77974	2.20833
1650.85117	2.26473
1648.92261	2.28620
1646.99404	2.31089
1645.06548	2.33662
1643.13691	2.35392
1641.20835	2.36340
1639.27979	2.37128
1637.35122	2.37454
1635.42266	2.37173
1633.49409	2.36431
1631.56553	2.35095
1629.63696	2.33334
1627.70840	2.30376
1625.77983	2.26885
1623.85127	2.22504
1621.92271	2.17152
1619.99414	2.12283
1618.06558	2.07528
1616.13701	2.01039
1614.20845	1.94466
1612.27988	1.89297
1610.35132	1.83865
1608.42275	1.78117
1606.49419	1.72610
1604.56562	1.67552
1602.63706	1.62594
1600.70850	1.57709
1598.77993	1.53244
1596.85137	1.49114
1594.92280	1.45101
1592.99424	1.41181
1591.06567	1.37580
1589.13711	1.34246
1587.20854	1.31187
1585.27998	1.28388
1583.35142	1.25818
1581.42285	1.23513
1579.49429	1.21549
1577.56572	1.19807
1575.63716	1.17789
1573.70859	1.16026
1571.78003	1.14868
1569.85146	1.13759
1567.92290	1.12623
1565.99434	1.11811
1564.06577	1.11266
1562.13721	1.10914
1560.20864	1.10829
1558.28008	1.11168
1556.35151	1.11570
1554.42295	1.11790
1552.49438	1.12000
1550.56582	1.12018
1548.63726	1.11739
1546.70869	1.11186
1544.78013	1.10319
1542.85156	1.09074
1540.92300	1.07146
1538.99443	1.04207
1537.06587	1.01970
1535.13730	1.00383
1533.20874	0.98339
1531.28018	0.96172
1529.35161	0.94564
1527.42305	0.93049
1525.49448	0.91478
1523.56592	0.90127
1521.63735	0.88875
1519.70879	0.87666
1517.78022	0.86649
1515.85166	0.85473
1513.92310	0.84198
1511.99453	0.83043
1510.06597	0.81998
1508.13740	0.81002
1506.20884	0.79537
1504.28027	0.78222
1502.35171	0.77455
1500.42314	0.76799
1498.49458	0.76116
1496.56602	0.75351
1494.63745	0.74607
1492.70889	0.74017
1490.78032	0.73497
1488.85176	0.72944
1486.92319	0.72446
1484.99463	0.72042
1483.06606	0.71721
1481.13750	0.71469
1479.20894	0.71294
1477.28037	0.71236
1475.35181	0.71268
1473.42324	0.71312
1471.49468	0.71279
1469.56611	0.71135
1467.63755	0.70939
1465.70898	0.70768
1463.78042	0.70660
1461.85186	0.70612
1459.92329	0.70609
1457.99473	0.70626
1456.06616	0.70564
1454.13760	0.70353
1452.20903	0.70096
1450.28047	0.69810
1448.35190	0.69499
1446.42334	0.69185
1444.49478	0.68902
1442.56621	0.68636
1440.63765	0.68367
1438.70908	0.68102
1436.78052	0.67775
1434.85195	0.67385
1432.92339	0.67085
1430.99482	0.66902
1429.06626	0.66794
1427.13770	0.66749
1425.20913	0.66787
1423.28057	0.66882
1421.35200	0.66957
1419.42344	0.67013
1417.49487	0.67026
1415.56631	0.66949
1413.63774	0.66867
1411.70918	0.66836
1409.78062	0.66882
1407.85205	0.66998
1405.92349	0.67154
1403.99492	0.67294
1402.06636	0.67339
1400.13779	0.67278
1398.20923	0.67117
1396.28066	0.66857
1394.35210	0.66463
1392.42354	0.65987
1390.49497	0.65543
1388.56641	0.65120
1386.63784	0.64657
1384.70928	0.64164
1382.78071	0.63681
1380.85215	0.63218
1378.92358	0.62822
1376.99502	0.62522
1375.06646	0.62314
1373.13789	0.62172
1371.20933	0.62085
1369.28076	0.62023
1367.35220	0.61932
1365.42363	0.61805
1363.49507	0.61670
1361.56650	0.61520
1359.63794	0.61349
1357.70937	0.61185
1355.78081	0.61038
1353.85225	0.60915
1351.92368	0.60825
1349.99512	0.60754
1348.06655	0.60676
1346.13799	0.60584
1344.20942	0.60495
1342.28086	0.60417
1340.35229	0.60348
1338.42373	0.60278
1336.49517	0.60203
1334.56660	0.60140
1332.63804	0.60115
1330.70947	0.60128
1328.78091	0.60167
1326.85234	0.60232
1324.92378	0.60313
1322.99521	0.60394
1321.06665	0.60474
1319.13809	0.60549
1317.20952	0.60595
1315.28096	0.60598
1313.35239	0.60560
1311.42383	0.60495
1309.49526	0.60428
1307.56670	0.60361
1305.63813	0.60291
1303.70957	0.60222
1301.78101	0.60145
1299.85244	0.60043
1297.92388	0.59926
1295.99531	0.59807
1294.06675	0.59678
1292.13818	0.59542
1290.20962	0.59409
1288.28105	0.59278
1286.35249	0.59141
1284.42393	0.58998
1282.49536	0.58856
1280.56680	0.58716
1278.63823	0.58569
1276.70967	0.58425
1274.78110	0.58299
1272.85254	0.58193
1270.92397	0.58110
1268.99541	0.58038
1267.06685	0.57968
1265.13828	0.57897
1263.20972	0.57827
1261.28115	0.57750
1259.35259	0.57675
1257.42402	0.57614
1255.49546	0.57571
1253.56689	0.57551
1251.63833	0.57545
1249.70977	0.57556
1247.78120	0.57573
1245.85264	0.57556
1243.92407	0.57494
1241.99551	0.57399
1240.06694	0.57266
1238.13838	0.57087
1236.20981	0.56870
1234.28125	0.56629
1232.35269	0.56387
1230.42412	0.56168
1228.49556	0.55968
1226.56699	0.55766
1224.63843	0.55562
1222.70986	0.55370
1220.78130	0.55198
1218.85273	0.55041
1216.92417	0.54895
1214.99561	0.54765
1213.06704	0.54653
1211.13848	0.54569
1209.20991	0.54511
1207.28135	0.54458
1205.35278	0.54399
1203.42422	0.54327
1201.49565	0.54224
1199.56709	0.54109
1197.63853	0.54016
1195.70996	0.53942
1193.78140	0.53872
1191.85283	0.53806
1189.92427	0.53753
1187.99570	0.53715
1186.06714	0.53698
1184.13857	0.53701
1182.21001	0.53737
1180.28145	0.53825
1178.35288	0.53951
1176.42432	0.54092
1174.49575	0.54234
1172.56719	0.54346
1170.63862	0.54402
1168.71006	0.54427
1166.78149	0.54447
1164.85293	0.54460
1162.92437	0.54468
1160.99580	0.54470
1159.06724	0.54450
1157.13867	0.54398
1155.21011	0.54324
1153.28154	0.54211
1151.35298	0.54036
1149.42441	0.53811
1147.49585	0.53545
1145.56729	0.53244
1143.63872	0.52936
1141.71016	0.52660
1139.78159	0.52456
1137.85303	0.52327
1135.92446	0.52253
1133.99590	0.52228
1132.06733	0.52229
1130.13877	0.52225
1128.21021	0.52206
1126.28164	0.52185
1124.35308	0.52153
1122.42451	0.52106
1120.49595	0.52089
1118.56738	0.52122
1116.63882	0.52155
1114.71025	0.52183
1112.78169	0.52229
1110.85312	0.52311
1108.92456	0.52423
1106.99600	0.52528
1105.06743	0.52613
1103.13887	0.52690
1101.21030	0.52779
1099.28174	0.52910
1097.35317	0.53082
1095.42461	0.53317
1093.49604	0.53673
1091.56748	0.54159
1089.63892	0.54756
1087.71035	0.55481
1085.78179	0.56323
1083.85322	0.57173
1081.92466	0.57903
1079.99609	0.58430
1078.06753	0.58684
1076.13896	0.58618
1074.21040	0.58258
1072.28184	0.57700
1070.35327	0.57020
1068.42471	0.56287
1066.49614	0.55585
1064.56758	0.54950
1062.63901	0.54382
1060.71045	0.53900
1058.78188	0.53500
1056.85332	0.53133
1054.92476	0.52773
1052.99619	0.52453
1051.06763	0.52216
1049.13906	0.52066
1047.21050	0.51986
1045.28193	0.51959
1043.35337	0.51971
1041.42480	0.51991
1039.49624	0.51984
1037.56768	0.51954
1035.63911	0.51942
1033.71055	0.51920
1031.78198	0.51806
1029.85342	0.51615
1027.92485	0.51423
1025.99629	0.51254
1024.06772	0.51112
1022.13916	0.51019
1020.21060	0.50966
1018.28203	0.50922
1016.35347	0.50893
1014.42490	0.50881
1012.49634	0.50860
1010.56777	0.50837
1008.63921	0.50838
1006.71064	0.50884
1004.78208	0.50991
1002.85352	0.51163
1000.92495	0.51410
998.99639	0.51741
997.06782	0.52152
995.13926	0.52602
993.21069	0.53013
991.28213	0.53328
989.35356	0.53531
987.42500	0.53626
985.49644	0.53633
983.56787	0.53607
981.63931	0.53606
979.71074	0.53662
977.78218	0.53785
975.85361	0.53961
973.92505	0.54185
971.99648	0.54477
970.06792	0.54824
968.13936	0.55189
966.21079	0.55582
964.28223	0.56025
962.35366	0.56508
960.42510	0.57001
958.49653	0.57503
956.56797	0.58043
954.63940	0.58631
952.71084	0.59248
950.78228	0.59869
948.85371	0.60482
946.92515	0.61110
944.99658	0.61776
943.06802	0.62444
941.13945	0.63075
939.21089	0.63680
937.28232	0.64289
935.35376	0.64900
933.42520	0.65486
931.49663	0.66032
929.56807	0.66538
927.63950	0.67065
925.71094	0.67687
923.78237	0.68361
921.85381	0.69041
919.92524	0.69757
917.99668	0.70469
916.06812	0.71160
914.13955	0.71924
912.21099	0.72769
910.28242	0.73585
908.35386	0.74342
906.42529	0.75112
904.49673	0.75969
902.56816	0.76948
900.63960	0.77992
898.71104	0.78990
896.78247	0.79905
894.85391	0.80754
892.92534	0.81621
890.99678	0.82637
889.06821	0.83762
887.13965	0.84830
885.21108	0.85809
883.28252	0.86840
881.35396	0.88029
879.42539	0.89353
877.49683	0.90702
875.56826	0.91959
873.63970	0.93100
871.71113	0.94220
869.78257	0.95429
867.85400	0.96703
865.92544	0.97870
863.99687	0.98827
862.06831	0.99712
860.13975	1.00765
858.21118	1.02092
856.28262	1.03511
854.35405	1.04726
852.42549	1.05746
850.49692	1.06786
848.56836	1.07916
846.63979	1.09237
844.71123	1.10682
842.78267	1.11829
840.85410	1.12717
838.92554	1.13777
836.99697	1.15149
835.06841	1.16649
833.13984	1.17999
831.21128	1.19272
829.28271	1.20487
827.35415	1.21173
825.42559	1.21548
823.49702	1.22472
821.56846	1.23974
819.63989	1.25863
817.71133	1.27793
815.78276	1.29133
813.85420	1.30018
811.92563	1.30482
809.99707	1.30832
808.06851	1.32208
806.13994	1.34557
804.21138	1.35626
802.28281	1.35053
800.35425	1.35998
798.42568	1.38853
796.49712	1.40374
794.56855	1.41290
792.63999	1.44696
790.71143	1.46977
788.78286	1.42292
786.85430	1.35373
784.92573	1.34763
782.99717	1.40508
781.06860	1.44635
779.14004	1.49355
777.21147	1.63446
775.28291	1.74207
773.35435	1.60762
771.42578	1.44635
769.49722	1.34010
767.56865	1.29530
765.64009	1.33026
763.71152	1.39415
761.78296	1.37729
759.85439	1.36838
757.92583	1.50132
755.99727	1.69983
754.06870	1.56638
752.14014	1.40414
750.21157	1.38098
748.28301	1.41222
746.35444	1.33842
744.42588	1.24395
742.49731	1.26897
740.56875	1.18201
738.64019	0.98927
736.71162	0.91088
734.78306	0.84616
732.85449	0.70088
730.92593	0.55978
728.99736	0.48375
727.06880	0.47758
725.14023	0.51902
723.21167	0.57546
721.28311	0.44582
719.35454	0.17045
717.42598	0.07635
715.49741	0.19932
713.56885	0.43769
711.64028	1.01061
709.71172	1.30399
707.78315	0.52144
705.85459	0.29955
703.92603	0.24688
701.99746	0.29575
700.06890	0.39382
698.14033	0.44484
696.21177	0.46916
694.28320	0.58076
692.35464	0.68365
690.42607	0.52062
688.49751	0.41745
686.56895	0.38211
684.64038	0.36231
682.71182	0.48975
680.78325	1.30866
678.85469	1.11502
676.92612	0.51064
674.99756	0.35086
673.06899	0.39161
671.14043	0.59703
669.21187	0.56898
667.28330	0.43989
665.35474	0.51302
663.42617	0.70579
661.49761	0.73132
659.56904	0.53324
657.64048	0.43692
655.71191	0.53533
653.78335	0.56788
651.85479	0.41247
649.92622	0.41841
647.99766	0.48779
646.06909	0.40187
644.14053	0.35141
642.21196	0.37967
640.28340	0.41778
638.35483	0.49790
636.42627	0.66463
634.49771	0.80524
632.56914	0.62920
630.64058	0.42710
628.71201	0.32304
626.78345	0.28328
624.85488	0.31009
622.92632	0.39151
620.99775	0.45170
619.06919	0.45176
617.14062	0.43900
615.21206	0.45799
613.28350	0.43088
611.35493	0.31006
609.42637	0.18867
607.49780	0.14132
605.56924	0.19724
603.64067	0.24573
601.71211	0.25780
599.78354	0.26807
597.85498	0.28588
595.92642	0.34420
593.99785	0.36928
592.06929	0.32563
590.14072	0.35999
588.21216	0.45811
586.28359	0.49935
584.35503	0.44850
582.42646	0.30047
580.49790	0.23270
578.56934	0.27782
576.64077	0.32824
574.71221	0.33923
572.78364	0.34576
570.85508	0.29361
568.92651	0.20454
566.99795	0.17773
565.06938	0.22580
563.14082	0.30157
561.21226	0.33455
559.28369	0.32358
557.35513	0.31964
555.42656	0.32502
553.49800	0.28893
551.56943	0.24002
549.64087	0.27386
547.71230	0.33816
545.78374	0.32570
543.85518	0.35619
541.92661	0.51484
539.99805	0.46983
538.06948	0.35501
536.14092	0.34550
534.21235	0.40951
532.28379	0.46410
530.35522	0.34191
528.42666	0.26855
526.49810	0.30477
524.56953	0.31642
522.64097	0.28483
520.71240	0.31283
518.78384	0.39310
516.85527	0.47695
514.92671	0.52756
512.99814	0.43477
511.06958	0.29839
509.14102	0.22303
507.21245	0.20601
505.28389	0.20802
503.35532	0.23370
501.42676	0.31175
499.49819	0.40983
