3997.91411	0.05232
3995.98555	0.05277
3994.05698	0.05287
3992.12842	0.05320
3990.19985	0.05395
3988.27129	0.05451
3986.34272	0.05446
3984.41416	0.05431
3982.48560	0.05466
3980.55703	0.05530
3978.62847	0.05586
3976.69990	0.05643
3974.77134	0.05684
3972.84277	0.05680
3970.91421	0.05648
3968.98564	0.05634
3967.05708	0.05631
3965.12852	0.05622
3963.19995	0.05644
3961.27139	0.05709
3959.34282	0.05773
3957.41426	0.05800
3955.48569	0.05797
3953.55713	0.05791
3951.62856	0.05830
3949.70000	0.05919
3947.77144	0.05977
3945.84287	0.05954
3943.91431	0.05943
3941.98574	0.05982
3940.05718	0.05936
3938.12861	0.05817
3936.20005	0.05770
3934.27148	0.05838
3932.34292	0.05985
3930.41436	0.06085
3928.48579	0.06032
3926.55723	0.05968
3924.62866	0.06020
3922.70010	0.06054
3920.77153	0.06004
3918.84297	0.06000
3916.91440	0.06025
3914.98584	0.05944
3913.05728	0.05809
3911.12871	0.05753
3909.20015	0.05762
3907.27158	0.05834
3905.34302	0.06042
3903.41445	0.06338
3901.48589	0.06524
3899.55732	0.06531
3897.62876	0.06363
3895.70020	0.06101
3893.77163	0.05989
3891.84307	0.06102
3889.91450	0.06186
3887.98594	0.06126
3886.05737	0.06180
3884.12881	0.06343
3882.20024	0.06406
3880.27168	0.06413
3878.34312	0.06312
3876.41455	0.06187
3874.48599	0.06285
3872.55742	0.06517
3870.62886	0.06699
3868.70029	0.06763
3866.77173	0.06665
3864.84316	0.06633
3862.91460	0.06685
3860.98604	0.06570
3859.05747	0.06410
3857.12891	0.06457
3855.20034	0.06762
3853.27178	0.07305
3851.34321	0.07538
3849.41465	0.07102
3847.48608	0.06693
3845.55752	0.06615
3843.62896	0.06819
3841.70039	0.07137
3839.77183	0.07475
3837.84326	0.07747
3835.91470	0.07760
3833.98613	0.07606
3832.05757	0.07488
3830.12900	0.07402
3828.20044	0.07371
3826.27187	0.07454
3824.34331	0.07601
3822.41475	0.07842
3820.48618	0.08227
3818.55762	0.08400
3816.62905	0.08331
3814.70049	0.08261
3812.77192	0.08128
3810.84336	0.08017
3808.91479	0.08071
3806.98623	0.08327
3805.05767	0.08636
3803.12910	0.08877
3801.20054	0.09170
3799.27197	0.09329
3797.34341	0.09248
3795.41484	0.09165
3793.48628	0.09097
3791.55771	0.09083
3789.62915	0.09168
3787.70059	0.09310
3785.77202	0.09517
3783.84346	0.09757
3781.91489	0.09942
3779.98633	0.10141
3778.05776	0.10352
3776.12920	0.10423
3774.20063	0.10447
3772.27207	0.10600
3770.34351	0.10933
3768.41494	0.11306
3766.48638	0.11525
3764.55781	0.11665
3762.62925	0.11792
3760.70068	0.12014
3758.77212	0.12411
3756.84355	0.12755
3754.91499	0.12960
3752.98643	0.13309
3751.05786	0.13962
3749.12930	0.14557
3747.20073	0.14708
3745.27217	0.14829
3743.34360	0.15161
3741.41504	0.15429
3739.48647	0.15618
3737.55791	0.16006
3735.62935	0.16762
3733.70078	0.17579
3731.77222	0.17882
3729.84365	0.17929
3727.91509	0.18169
3725.98652	0.18763
3724.05796	0.19535
3722.12939	0.20214
3720.20083	0.20817
3718.27227	0.21418
3716.34370	0.22056
3714.41514	0.22811
3712.48657	0.23907
3710.55801	0.25467
3708.62944	0.26888
3706.70088	0.27847
3704.77231	0.28816
3702.84375	0.30140
3700.91519	0.31889
3698.98662	0.33698
3697.05806	0.35382
3695.12949	0.37221
3693.20093	0.39279
3691.27236	0.41654
3689.34380	0.44674
3687.41523	0.48075
3685.48667	0.50900
3683.55811	0.53389
3681.62954	0.56211
3679.70098	0.59514
3677.77241	0.63072
3675.84385	0.67254
3673.91528	0.72564
3671.98672	0.76849
3670.05815	0.80758
3668.12959	0.85952
3666.20103	0.90582
3664.27246	0.94539
3662.34390	0.98903
3660.41533	1.03641
3658.48677	1.08353
3656.55820	1.13423
3654.62964	1.19017
3652.70107	1.23774
3650.77251	1.28146
3648.84395	1.34076
3646.91538	1.40741
3644.98682	1.45415
3643.05825	1.49119
3641.12969	1.53091
3639.20112	1.57577
3637.27256	1.62133
3635.34399	1.66566
3633.41543	1.70987
3631.48687	1.75122
3629.55830	1.79342
3627.62974	1.84762
3625.70117	1.89698
3623.77261	1.93084
3621.84404	1.96502
3619.91548	2.00556
3617.98691	2.05261
3616.05835	2.09528
3614.12979	2.13138
3612.20122	2.17081
3610.27266	2.21048
3608.34409	2.24999
3606.41553	2.29192
3604.48696	2.33109
3602.55840	2.36682
3600.62983	2.40578
3598.70127	2.44779
3596.77271	2.48857
3594.84414	2.52975
3592.91558	2.57167
3590.98701	2.61024
3589.05845	2.64596
3587.12988	2.68885
3585.20132	2.73703
3583.27275	2.77950
3581.34419	2.81866
3579.41562	2.85903
3577.48706	2.90083
3575.55850	2.94312
3573.62993	2.98662
3571.70137	3.02893
3569.77280	3.06996
3567.84424	3.11535
3565.91567	3.16974
3563.98711	3.21845
3562.05854	3.25707
3560.12998	3.29889
3558.20142	3.34498
3556.27285	3.38936
3554.34429	3.43221
3552.41572	3.47966
3550.48716	3.52908
3548.55859	3.57538
3546.63003	3.62141
3544.70146	3.66973
3542.77290	3.71736
3540.84434	3.76265
3538.91577	3.80677
3536.98721	3.85228
3535.05864	3.90301
3533.13008	3.95459
3531.20151	4.00364
3529.27295	4.04944
3527.34438	4.09380
3525.41582	4.14219
3523.48726	4.19352
3521.55869	4.24355
3519.63013	4.29150
3517.70156	4.33977
3515.77300	4.38817
3513.84443	4.43527
3511.91587	4.48108
3509.98730	4.52850
3508.05874	4.58162
3506.13018	4.64004
3504.20161	4.69426
3502.27305	4.73908
3500.34448	4.78116
3498.41592	4.82235
3496.48735	4.86408
3494.55879	4.91267
3492.63022	4.97153
3490.70166	5.03253
3488.77310	5.08362
3486.84453	5.12894
3484.91597	5.17639
3482.98740	5.21895
3481.05884	5.25697
3479.13027	5.30311
3477.20171	5.35369
3475.27314	5.40031
3473.34458	5.44948
3471.41602	5.50307
3469.48745	5.55229
3467.55889	5.59759
3465.63032	5.64494
3463.70176	5.69128
3461.77319	5.74051
3459.84463	5.80218
3457.91606	5.86180
3455.98750	5.90974
3454.05894	5.95555
3452.13037	6.00530
3450.20181	6.05993
3448.27324	6.11259
3446.34468	6.15997
3444.41611	6.20274
3442.48755	6.24993
3440.55898	6.30289
3438.63042	6.35126
3436.70186	6.39600
3434.77329	6.43984
3432.84473	6.48786
3430.91616	6.55638
3428.98760	6.63327
3427.05903	6.67488
3425.13047	6.69036
3423.20190	6.71727
3421.27334	6.77489
3419.34478	6.85610
3417.41621	6.93617
3415.48765	6.99615
3413.55908	7.02653
3411.63052	7.05308
3409.70195	7.09872
3407.77339	7.15665
3405.84482	7.20541
3403.91626	7.25265
3401.98770	7.29868
3400.05913	7.32619
3398.13057	7.35624
3396.20200	7.40301
3394.27344	7.44040
3392.34487	7.45450
3390.41631	7.49123
3388.48774	7.56238
3386.55918	7.63721
3384.63062	7.66971
3382.70205	7.66763
3380.77349	7.67596
3378.84492	7.67673
3376.91636	7.69449
3374.98779	7.76849
3373.05923	7.85164
3371.13066	7.87173
3369.20210	7.86931
3367.27354	7.87344
3365.34497	7.85406
3363.41641	7.84824
3361.48784	7.87827
3359.55928	7.90685
3357.63071	7.94709
3355.70215	8.02645
3353.77358	8.09610
3351.84502	8.15029
3349.91646	8.16920
3347.98789	8.13524
3346.05933	8.10573
3344.13076	8.11415
3342.20220	8.15741
3340.27363	8.20895
3338.34507	8.20696
3336.41650	8.12395
3334.48794	8.08634
3332.55937	8.12830
3330.63081	8.16833
3328.70225	8.12471
3326.77368	8.00804
3324.84512	7.97722
3322.91655	8.04916
3320.98799	8.08150
3319.05942	8.07241
3317.13086	8.14364
3315.20229	8.22696
3313.27373	8.20543
3311.34517	8.16739
3309.41660	8.19236
3307.48804	8.23407
3305.55947	8.23497
3303.63091	8.18053
3301.70234	8.09436
3299.77378	8.07244
3297.84521	8.10830
3295.91665	8.12583
3293.98809	8.12365
3292.05952	8.12783
3290.13096	8.15397
3288.20239	8.18540
3286.27383	8.21503
3284.34526	8.24807
3282.41670	8.28393
3280.48813	8.30514
3278.55957	8.30114
3276.63101	8.30405
3274.70244	8.29854
3272.77388	8.22663
3270.84531	8.15786
3268.91675	8.16305
3266.98818	8.21738
3265.05962	8.26699
3263.13105	8.27535
3261.20249	8.29555
3259.27393	8.31108
3257.34536	8.28797
3255.41680	8.27821
3253.48823	8.28726
3251.55967	8.31887
3249.63110	8.39309
3247.70254	8.47886
3245.77397	8.54667
3243.84541	8.55486
3241.91685	8.45329
3239.98828	8.33333
3238.05972	8.21555
3236.13115	8.09775
3234.20259	8.06924
3232.27402	8.13209
3230.34546	8.22796
3228.41689	8.30449
3226.48833	8.34518
3224.55977	8.35214
3222.63120	8.31522
3220.70264	8.26390
3218.77407	8.22879
3216.84551	8.20325
3214.91694	8.17763
3212.98838	8.14713
3211.05981	8.09158
3209.13125	8.02245
3207.20269	7.98297
3205.27412	7.93588
3203.34556	7.85895
3201.41699	7.83202
3199.48843	7.83535
3197.55986	7.79124
3195.63130	7.74149
3193.70273	7.73996
3191.77417	7.74785
3189.84561	7.71127
3187.91704	7.63738
3185.98848	7.55661
3184.05991	7.50594
3182.13135	7.48490
3180.20278	7.43480
3178.27422	7.34740
3176.34565	7.27733
3174.41709	7.22800
3172.48853	7.17052
3170.55996	7.11138
3168.63140	7.05689
3166.70283	6.99861
3164.77427	6.94117
3162.84570	6.88879
3160.91714	6.83406
3158.98857	6.76714
3157.06001	6.68343
3155.13145	6.60523
3153.20288	6.54841
3151.27432	6.49914
3149.34575	6.44416
3147.41719	6.37995
3145.48862	6.31576
3143.56006	6.24977
3141.63149	6.16192
3139.70293	6.06668
3137.77437	5.99615
3135.84580	5.94118
3133.91724	5.87690
3131.98867	5.79836
3130.06011	5.71829
3128.13154	5.64636
3126.20298	5.57403
3124.27441	5.49879
3122.34585	5.42651
3120.41729	5.35553
3118.48872	5.28746
3116.56016	5.22199
3114.63159	5.15006
3112.70303	5.07662
3110.77446	5.01013
3108.84590	4.94415
3106.91733	4.87630
3104.98877	4.81074
3103.06021	4.74543
3101.13164	4.67607
3099.20308	4.60595
3097.27451	4.53604
3095.34595	4.46521
3093.41738	4.39803
3091.48882	4.33267
3089.56025	4.26493
3087.63169	4.19750
3085.70312	4.13171
3083.77456	4.06662
3081.84600	4.00495
3079.91743	3.94619
3077.98887	3.88558
3076.06030	3.82359
3074.13174	3.76351
3072.20317	3.70542
3070.27461	3.64726
3068.34604	3.58962
3066.41748	3.53379
3064.48892	3.47814
3062.56035	3.42113
3060.63179	3.36340
3058.70322	3.30648
3056.77466	3.25109
3054.84609	3.19769
3052.91753	3.14591
3050.98896	3.09379
3049.06040	3.04127
3047.13184	2.98998
3045.20327	2.94025
3043.27471	2.89143
3041.34614	2.84228
3039.41758	2.79229
3037.48901	2.74300
3035.56045	2.69574
3033.63188	2.65016
3031.70332	2.60526
3029.77476	2.56081
3027.84619	2.51745
3025.91763	2.47487
3023.98906	2.43175
3022.06050	2.38787
3020.13193	2.34478
3018.20337	2.30360
3016.27480	2.26374
3014.34624	2.22463
3012.41768	2.18591
3010.48911	2.14694
3008.56055	2.10856
3006.63198	2.07164
3004.70342	2.03521
3002.77485	1.99893
3000.84629	1.96324
2998.91772	1.92828
2996.98916	1.89453
2995.06060	1.86170
2993.13203	1.82888
2991.20347	1.79668
2989.27490	1.76601
2987.34634	1.73603
2985.41777	1.70570
2983.48921	1.67567
2981.56064	1.64675
2979.63208	1.61816
2977.70352	1.58936
2975.77495	1.56100
2973.84639	1.53356
2971.91782	1.50698
2969.98926	1.48088
2968.06069	1.45501
2966.13213	1.42948
2964.20356	1.40401
2962.27500	1.37831
2960.34644	1.35293
2958.41787	1.32835
2956.48931	1.30430
2954.56074	1.28062
2952.63218	1.25733
2950.70361	1.23417
2948.77505	1.21120
2946.84648	1.18891
2944.91792	1.16698
2942.98936	1.14505
2941.06079	1.12354
2939.13223	1.10228
2937.20366	1.08124
2935.27510	1.06091
2933.34653	1.04083
2931.41797	1.02096
2929.48940	1.00218
2927.56084	0.98398
2925.63228	0.96553
2923.70371	0.94753
2921.77515	0.93024
2919.84658	0.91339
2917.91802	0.89711
2915.98945	0.88113
2914.06089	0.86532
2912.13232	0.84983
2910.20376	0.83466
2908.27520	0.82000
2906.34663	0.80608
2904.41807	0.79266
2902.48950	0.77930
2900.56094	0.76607
2898.63237	0.75315
2896.70381	0.74047
2894.77524	0.72788
2892.84668	0.71566
2890.91812	0.70407
2888.98955	0.69266
2887.06099	0.68126
2885.13242	0.67032
2883.20386	0.65972
2881.27529	0.64933
2879.34673	0.63907
2877.41816	0.62870
2875.48960	0.61846
2873.56104	0.60821
2871.63247	0.59757
2869.70391	0.58678
2867.77534	0.57600
2865.84678	0.56505
2863.91821	0.55406
2861.98965	0.54329
2860.06108	0.53280
2858.13252	0.52269
2856.20396	0.51309
2854.27539	0.50396
2852.34683	0.49528
2850.41826	0.48697
2848.48970	0.47896
2846.56113	0.47141
2844.63257	0.46440
2842.70400	0.45782
2840.77544	0.45160
2838.84687	0.44569
2836.91831	0.43990
2834.98975	0.43390
2833.06118	0.42782
2831.13262	0.42192
2829.20405	0.41614
2827.27549	0.41044
2825.34692	0.40468
2823.41836	0.39876
2821.48979	0.39278
2819.56123	0.38679
2817.63267	0.38090
2815.70410	0.37534
2813.77554	0.36996
2811.84697	0.36453
2809.91841	0.35908
2807.98984	0.35369
2806.06128	0.34836
2804.13271	0.34321
2802.20415	0.33816
2800.27559	0.33315
2798.34702	0.32834
2796.41846	0.32387
2794.48989	0.31948
2792.56133	0.31493
2790.63276	0.31033
2788.70420	0.30580
2786.77563	0.30137
2784.84707	0.29705
2782.91851	0.29289
2780.98994	0.28894
2779.06138	0.28508
2777.13281	0.28115
2775.20425	0.27722
2773.27568	0.27340
2771.34712	0.26978
2769.41855	0.26632
2767.48999	0.26287
2765.56143	0.25952
2763.63286	0.25622
2761.70430	0.25286
2759.77573	0.24960
2757.84717	0.24644
2755.91860	0.24325
2753.99004	0.24018
2752.06147	0.23733
2750.13291	0.23463
2748.20435	0.23194
2746.27578	0.22918
2744.34722	0.22641
2742.41865	0.22367
2740.49009	0.22099
2738.56152	0.21846
2736.63296	0.21613
2734.70439	0.21388
2732.77583	0.21157
2730.84727	0.20930
2728.91870	0.20710
2726.99014	0.20487
2725.06157	0.20254
2723.13301	0.20027
2721.20444	0.19823
2719.27588	0.19637
2717.34731	0.19454
2715.41875	0.19268
2713.49019	0.19075
2711.56162	0.18883
2709.63306	0.18701
2707.70449	0.18533
2705.77593	0.18377
2703.84736	0.18232
2701.91880	0.18080
2699.99023	0.17911
2698.06167	0.17746
2696.13311	0.17600
2694.20454	0.17468
2692.27598	0.17342
2690.34741	0.17220
2688.41885	0.17097
2686.49028	0.16970
2684.56172	0.16843
2682.63315	0.16718
2680.70459	0.16596
2678.77603	0.16486
2676.84746	0.16374
2674.91890	0.16253
2672.99033	0.16140
2671.06177	0.16043
2669.13320	0.15954
2667.20464	0.15864
2665.27607	0.15770
2663.34751	0.15677
2661.41895	0.15596
2659.49038	0.15524
2657.56182	0.15453
2655.63325	0.15378
2653.70469	0.15299
2651.77612	0.15227
2649.84756	0.15168
2647.91899	0.15105
2645.99043	0.15036
2644.06187	0.14977
2642.13330	0.14918
2640.20474	0.14859
2638.27617	0.14814
2636.34761	0.14778
2634.41904	0.14743
2632.49048	0.14712
2630.56191	0.14690
2628.63335	0.14661
2626.70479	0.14611
2624.77622	0.14566
2622.84766	0.14541
2620.91909	0.14522
2618.99053	0.14505
2617.06196	0.14486
2615.13340	0.14463
2613.20483	0.14447
2611.27627	0.14436
2609.34771	0.14423
2607.41914	0.14415
2605.49058	0.14412
2603.56201	0.14404
2601.63345	0.14396
2599.70488	0.14398
2597.77632	0.14416
2595.84775	0.14442
2593.91919	0.14462
2591.99062	0.14476
2590.06206	0.14496
2588.13350	0.14508
2586.20493	0.14509
2584.27637	0.14529
2582.34780	0.14567
2580.41924	0.14598
2578.49067	0.14618
2576.56211	0.14639
2574.63354	0.14671
2572.70498	0.14705
2570.77642	0.14744
2568.84785	0.14788
2566.91929	0.14829
2564.99072	0.14874
2563.06216	0.14926
2561.13359	0.14973
2559.20503	0.15011
2557.27646	0.15058
2555.34790	0.15120
2553.41934	0.15181
2551.49077	0.15235
2549.56221	0.15296
2547.63364	0.15370
2545.70508	0.15440
2543.77651	0.15494
2541.84795	0.15542
2539.91938	0.15596
2537.99082	0.15662
2536.06226	0.15734
2534.13369	0.15801
2532.20513	0.15871
2530.27656	0.15953
2528.34800	0.16034
2526.41943	0.16107
2524.49087	0.16183
2522.56230	0.16261
2520.63374	0.16336
2518.70518	0.16411
2516.77661	0.16491
2514.84805	0.16575
2512.91948	0.16658
2510.99092	0.16734
2509.06235	0.16812
2507.13379	0.16896
2505.20522	0.16979
2503.27666	0.17058
2501.34810	0.17143
2499.41953	0.17236
2497.49097	0.17329
2495.56240	0.17415
2493.63384	0.17502
2491.70527	0.17592
2489.77671	0.17675
2487.84814	0.17762
2485.91958	0.17857
2483.99102	0.17941
2482.06245	0.18018
2480.13389	0.18108
2478.20532	0.18213
2476.27676	0.18313
2474.34819	0.18405
2472.41963	0.18500
2470.49106	0.18597
2468.56250	0.18691
2466.63394	0.18785
2464.70537	0.18877
2462.77681	0.18966
2460.84824	0.19056
2458.91968	0.19155
2456.99111	0.19262
2455.06255	0.19362
2453.13398	0.19455
2451.20542	0.19551
2449.27686	0.19652
2447.34829	0.19755
2445.41973	0.19856
2443.49116	0.19955
2441.56260	0.20057
2439.63403	0.20171
2437.70547	0.20286
2435.77690	0.20391
2433.84834	0.20495
2431.91978	0.20602
2429.99121	0.20711
2428.06265	0.20818
2426.13408	0.20926
2424.20552	0.21039
2422.27695	0.21149
2420.34839	0.21254
2418.41982	0.21370
2416.49126	0.21497
2414.56270	0.21623
2412.63413	0.21742
2410.70557	0.21852
2408.77700	0.21966
2406.84844	0.22094
2404.91987	0.22228
2402.99131	0.22353
2401.06274	0.22467
2399.13418	0.22579
2397.20562	0.22702
2395.27705	0.22840
2393.34849	0.22971
2391.41992	0.23090
2389.49136	0.23219
2387.56279	0.23376
2385.63423	0.23564
2383.70566	0.23784
2381.77710	0.24039
2379.84854	0.24326
2377.91997	0.24641
2375.99141	0.24972
2374.06284	0.25328
2372.13428	0.25736
2370.20571	0.26194
2368.27715	0.26648
2366.34858	0.27083
2364.42002	0.27476
2362.49146	0.27765
2360.56289	0.28033
2358.63433	0.28284
2356.70576	0.28322
2354.77720	0.28210
2352.84863	0.28095
2350.92007	0.27892
2348.99150	0.27701
2347.06294	0.27696
2345.13437	0.27970
2343.20581	0.28444
2341.27725	0.28810
2339.34868	0.28994
2337.42012	0.29133
2335.49155	0.29269
2333.56299	0.29397
2331.63442	0.29536
2329.70586	0.29637
2327.77729	0.29676
2325.84873	0.29727
2323.92017	0.29841
2321.99160	0.29959
2320.06304	0.30016
2318.13447	0.30058
2316.20591	0.30139
2314.27734	0.30253
2312.34878	0.30384
2310.42021	0.30496
2308.49165	0.30563
2306.56309	0.30632
2304.63452	0.30732
2302.70596	0.30846
2300.77739	0.30974
2298.84883	0.31118
2296.92026	0.31277
2294.99170	0.31439
2293.06313	0.31589
2291.13457	0.31735
2289.20601	0.31894
2287.27744	0.32059
2285.34888	0.32223
2283.42031	0.32394
2281.49175	0.32579
2279.56318	0.32781
2277.63462	0.32995
2275.70605	0.33215
2273.77749	0.33436
2271.84893	0.33657
2269.92036	0.33872
2267.99180	0.34074
2266.06323	0.34277
2264.13467	0.34501
2262.20610	0.34727
2260.27754	0.34940
2258.34897	0.35155
2256.42041	0.35375
2254.49185	0.35592
2252.56328	0.35809
2250.63472	0.36025
2248.70615	0.36242
2246.77759	0.36460
2244.84902	0.36677
2242.92046	0.36894
2240.99189	0.37117
2239.06333	0.37342
2237.13477	0.37566
2235.20620	0.37789
2233.27764	0.38019
2231.34907	0.38256
2229.42051	0.38490
2227.49194	0.38717
2225.56338	0.38936
2223.63481	0.39155
2221.70625	0.39376
2219.77769	0.39598
2217.84912	0.39819
2215.92056	0.40044
2213.99199	0.40275
2212.06343	0.40504
2210.13486	0.40715
2208.20630	0.40918
2206.27773	0.41128
2204.34917	0.41344
2202.42061	0.41559
2200.49204	0.41773
2198.56348	0.41987
2196.63491	0.42190
2194.70635	0.42385
2192.77778	0.42580
2190.84922	0.42778
2188.92065	0.42976
2186.99209	0.43166
2185.06353	0.43347
2183.13496	0.43521
2181.20640	0.43689
2179.27783	0.43856
2177.34927	0.44017
2175.42070	0.44170
2173.49214	0.44333
2171.56357	0.44495
2169.63501	0.44636
2167.70645	0.44768
2165.77788	0.44899
2163.84932	0.45022
2161.92075	0.45144
2159.99219	0.45267
2158.06362	0.45376
2156.13506	0.45463
2154.20649	0.45541
2152.27793	0.45619
2150.34937	0.45691
2148.42080	0.45763
2146.49224	0.45839
2144.56367	0.45901
2142.63511	0.45939
2140.70654	0.45965
2138.77798	0.45994
2136.84941	0.46018
2134.92085	0.46024
2132.99229	0.46025
2131.06372	0.46030
2129.13516	0.46024
2127.20659	0.46002
2125.27803	0.45978
2123.34946	0.45950
2121.42090	0.45905
2119.49233	0.45845
2117.56377	0.45787
2115.63521	0.45730
2113.70664	0.45657
2111.77808	0.45561
2109.84951	0.45454
2107.92095	0.45343
2105.99238	0.45224
2104.06382	0.45104
2102.13525	0.44983
2100.20669	0.44854
2098.27812	0.44708
2096.34956	0.44559
2094.42100	0.44419
2092.49243	0.44268
2090.56387	0.44104
2088.63530	0.43940
2086.70674	0.43769
2084.77817	0.43585
2082.84961	0.43395
2080.92104	0.43195
2078.99248	0.42988
2077.06392	0.42782
2075.13535	0.42574
2073.20679	0.42357
2071.27822	0.42129
2069.34966	0.41894
2067.42109	0.41662
2065.49253	0.41438
2063.56396	0.41203
2061.63540	0.40946
2059.70684	0.40681
2057.77827	0.40424
2055.84971	0.40179
2053.92114	0.39931
2051.99258	0.39671
2050.06401	0.39405
2048.13545	0.39140
2046.20688	0.38869
2044.27832	0.38595
2042.34976	0.38325
2040.42119	0.38052
2038.49263	0.37774
2036.56406	0.37504
2034.63550	0.37236
2032.70693	0.36958
2030.77837	0.36674
2028.84980	0.36390
2026.92124	0.36112
2024.99268	0.35831
2023.06411	0.35544
2021.13555	0.35268
2019.20698	0.35010
2017.27842	0.34754
2015.34985	0.34473
2013.42129	0.34177
2011.49272	0.33884
2009.56416	0.33603
2007.63560	0.33332
2005.70703	0.33060
2003.77847	0.32784
2001.84990	0.32513
1999.92134	0.32252
1997.99277	0.31996
1996.06421	0.31737
1994.13564	0.31492
1992.20708	0.31266
1990.27852	0.31024
1988.34995	0.30760
1986.42139	0.30495
1984.49282	0.30233
1982.56426	0.29981
1980.63569	0.29738
1978.70713	0.29499
1976.77856	0.29268
1974.85000	0.29050
1972.92144	0.28830
1970.99287	0.28613
1969.06431	0.28427
1967.13574	0.28254
1965.20718	0.28043
1963.27861	0.27814
1961.35005	0.27603
1959.42148	0.27405
1957.49292	0.27217
1955.56436	0.27039
1953.63579	0.26860
1951.70723	0.26685
1949.77866	0.26523
1947.85010	0.26369
1945.92153	0.26232
1943.99297	0.26120
1942.06440	0.25996
1940.13584	0.25812
1938.20728	0.25615
1936.27871	0.25460
1934.35015	0.25333
1932.42158	0.25214
1930.49302	0.25091
1928.56445	0.24972
1926.63589	0.24869
1924.70732	0.24801
1922.77876	0.24746
1920.85020	0.24657
1918.92163	0.24561
1916.99307	0.24464
1915.06450	0.24338
1913.13594	0.24224
1911.20737	0.24160
1909.27881	0.24111
1907.35024	0.24037
1905.42168	0.23949
1903.49312	0.23880
1901.56455	0.23820
1899.63599	0.23762
1897.70742	0.23724
1895.77886	0.23707
1893.85029	0.23681
1891.92173	0.23641
1889.99316	0.23639
1888.06460	0.23628
1886.13604	0.23575
1884.20747	0.23528
1882.27891	0.23503
1880.35034	0.23492
1878.42178	0.23489
1876.49321	0.23489
1874.56465	0.23485
1872.63608	0.23504
1870.70752	0.23592
1868.77896	0.23732
1866.85039	0.23756
1864.92183	0.23657
1862.99326	0.23601
1861.06470	0.23620
1859.13613	0.23663
1857.20757	0.23695
1855.27900	0.23722
1853.35044	0.23750
1851.42187	0.23802
1849.49331	0.23897
1847.56475	0.24032
1845.63618	0.24191
1843.70762	0.24325
1841.77905	0.24350
1839.85049	0.24337
1837.92192	0.24403
1835.99336	0.24504
1834.06479	0.24598
1832.13623	0.24722
1830.20767	0.24919
1828.27910	0.25084
1826.35054	0.25165
1824.42197	0.25263
1822.49341	0.25349
1820.56484	0.25436
1818.63628	0.25573
1816.70771	0.25749
1814.77915	0.25921
1812.85059	0.26118
1810.92202	0.26356
1808.99346	0.26569
1807.06489	0.26743
1805.13633	0.26922
1803.20776	0.27163
1801.27920	0.27461
1799.35063	0.27770
1797.42207	0.28023
1795.49351	0.28275
1793.56494	0.28609
1791.63638	0.29007
1789.70781	0.29293
1787.77925	0.29488
1785.85068	0.29788
1783.92212	0.30169
1781.99355	0.30583
1780.06499	0.31024
1778.13643	0.31452
1776.20786	0.31867
1774.27930	0.32371
1772.35073	0.33057
1770.42217	0.33697
1768.49360	0.34144
1766.56504	0.34578
1764.63647	0.35084
1762.70791	0.35705
1760.77935	0.36477
1758.85078	0.37179
1756.92222	0.37893
1754.99365	0.38675
1753.06509	0.39414
1751.13652	0.40340
1749.20796	0.41467
1747.27939	0.42492
1745.35083	0.43358
1743.42227	0.44286
1741.49370	0.45339
1739.56514	0.46586
1737.63657	0.47827
1735.70801	0.48968
1733.77944	0.50694
1731.85088	0.52640
1729.92231	0.54120
1727.99375	0.55630
1726.06519	0.57290
1724.13662	0.59152
1722.20806	0.61189
1720.27949	0.63124
1718.35093	0.65452
1716.42236	0.68748
1714.49380	0.71716
1712.56523	0.74090
1710.63667	0.76463
1708.70811	0.79091
1706.77954	0.82108
1704.85098	0.85649
1702.92241	0.88800
1700.99385	0.91944
1699.06528	0.96506
1697.13672	1.00625
1695.20815	1.04817
1693.27959	1.08959
1691.35103	1.12349
1689.42246	1.16266
1687.49390	1.20422
1685.56533	1.24521
1683.63677	1.30651
1681.70820	1.36806
1679.77964	1.40760
1677.85107	1.44609
1675.92251	1.49118
1673.99395	1.54636
1672.06538	1.59561
1670.13682	1.64399
1668.20825	1.70531
1666.27969	1.75571
1664.35112	1.79910
1662.42256	1.85203
1660.49399	1.91096
1658.56543	1.95837
1656.63687	1.99781
1654.70830	2.03431
1652.77974	2.08855
1650.85117	2.13986
1648.92261	2.16156
1646.99404	2.19016
1645.06548	2.21961
1643.13691	2.23798
1641.20835	2.24983
1639.27979	2.26123
1637.35122	2.26930
1635.42266	2.27152
1633.49409	2.26577
1631.56553	2.25264
1629.63696	2.23610
1627.70840	2.20970
1625.77983	2.17883
1623.85127	2.14012
1621.92271	2.09265
1619.99414	2.04893
1618.06558	2.00590
1616.13701	1.94612
1614.20845	1.88408
1612.27988	1.83528
1610.35132	1.78444
1608.42275	1.72952
1606.49419	1.67504
1604.56562	1.62455
1602.63706	1.57609
1600.70850	1.52879
1598.77993	1.48471
1596.85137	1.44352
1594.92280	1.40433
1592.99424	1.36636
1591.06567	1.33098
1589.13711	1.29762
1587.20854	1.26644
1585.27998	1.23748
1583.35142	1.21030
1581.42285	1.18560
1579.49429	1.16472
1577.56572	1.14621
1575.63716	1.12336
1573.70859	1.10199
1571.78003	1.08767
1569.85146	1.07346
1567.92290	1.05752
1565.99434	1.04482
1564.06577	1.03501
1562.13721	1.02777
1560.20864	1.02328
1558.28008	1.01672
1556.35151	1.00848
1554.42295	1.00271
1552.49438	0.99775
1550.56582	0.99252
1548.63726	0.98579
1546.70869	0.97803
1544.78013	0.96941
1542.85156	0.95945
1540.92300	0.94617
1538.99443	0.92496
1537.06587	0.90745
1535.13730	0.89581
1533.20874	0.88183
1531.28018	0.86640
1529.35161	0.85487
1527.42305	0.84479
1525.49448	0.83462
1523.56592	0.82576
1521.63735	0.81730
1519.70879	0.80816
1517.78022	0.80013
1515.85166	0.79110
1513.92310	0.78127
1511.99453	0.77307
1510.06597	0.76683
1508.13740	0.76211
1506.20884	0.75328
1504.28027	0.74220
1502.35171	0.73530
1500.42314	0.73045
1498.49458	0.72617
1496.56602	0.72087
1494.63745	0.71467
1492.70889	0.71005
1490.78032	0.70720
1488.85176	0.70390
1486.92319	0.69915
1484.99463	0.69463
1483.06606	0.69134
1481.13750	0.68896
1479.20894	0.68700
1477.28037	0.68576
1475.35181	0.68540
1473.42324	0.68509
1471.49468	0.68297
1469.56611	0.67957
1467.63755	0.67692
1465.70898	0.67518
1463.78042	0.67353
1461.85186	0.67225
1459.92329	0.67240
1457.99473	0.67361
1456.06616	0.67249
1454.13760	0.66835
1452.20903	0.66478
1450.28047	0.66214
1448.35190	0.65993
1446.42334	0.65755
1444.49478	0.65517
1442.56621	0.65316
1440.63765	0.65141
1438.70908	0.65002
1436.78052	0.64853
1434.85195	0.64601
1432.92339	0.64341
1430.99482	0.64187
1429.06626	0.64094
1427.13770	0.63993
1425.20913	0.63929
1423.28057	0.63914
1421.35200	0.63906
1419.42344	0.63925
1417.49487	0.63862
1415.56631	0.63641
1413.63774	0.63435
1411.70918	0.63319
1409.78062	0.63267
1407.85205	0.63252
1405.92349	0.63263
1403.99492	0.63240
1402.06636	0.63164
1400.13779	0.63094
1398.20923	0.62992
1396.28066	0.62798
1394.35210	0.62503
1392.42354	0.62146
1390.49497	0.61842
1388.56641	0.61608
1386.63784	0.61345
1384.70928	0.61011
1382.78071	0.60685
1380.85215	0.60407
1378.92358	0.60187
1376.99502	0.60038
1375.06646	0.59964
1373.13789	0.59893
1371.20933	0.59784
1369.28076	0.59693
1367.35220	0.59604
1365.42363	0.59501
1363.49507	0.59422
1361.56650	0.59324
1359.63794	0.59162
1357.70937	0.59006
1355.78081	0.58886
1353.85225	0.58775
1351.92368	0.58663
1349.99512	0.58568
1348.06655	0.58478
1346.13799	0.58377
1344.20942	0.58281
1342.28086	0.58212
1340.35229	0.58169
1338.42373	0.58099
1336.49517	0.57985
1334.56660	0.57875
1332.63804	0.57803
1330.70947	0.57757
1328.78091	0.57720
1326.85234	0.57703
1324.92378	0.57705
1322.99521	0.57713
1321.06665	0.57726
1319.13809	0.57731
1317.20952	0.57707
1315.28096	0.57656
1313.35239	0.57589
1311.42383	0.57513
1309.49526	0.57432
1307.56670	0.57346
1305.63813	0.57253
1303.70957	0.57159
1301.78101	0.57068
1299.85244	0.56979
1297.92388	0.56885
1295.99531	0.56785
1294.06675	0.56682
1292.13818	0.56573
1290.20962	0.56460
1288.28105	0.56366
1286.35249	0.56283
1284.42393	0.56194
1282.49536	0.56107
1280.56680	0.56011
1278.63823	0.55895
1276.70967	0.55784
1274.78110	0.55696
1272.85254	0.55627
1270.92397	0.55567
1268.99541	0.55512
1267.06685	0.55467
1265.13828	0.55419
1263.20972	0.55363
1261.28115	0.55306
1259.35259	0.55251
1257.42402	0.55206
1255.49546	0.55185
1253.56689	0.55174
1251.63833	0.55151
1249.70977	0.55124
1247.78120	0.55113
1245.85264	0.55097
1243.92407	0.55052
1241.99551	0.54985
1240.06694	0.54900
1238.13838	0.54781
1236.20981	0.54639
1234.28125	0.54498
1232.35269	0.54355
1230.42412	0.54211
1228.49556	0.54077
1226.56699	0.53946
1224.63843	0.53813
1222.70986	0.53684
1220.78130	0.53560
1218.85273	0.53439
1216.92417	0.53333
1214.99561	0.53247
1213.06704	0.53168
1211.13848	0.53094
1209.20991	0.53035
1207.28135	0.52981
1205.35278	0.52920
1203.42422	0.52849
1201.49565	0.52769
1199.56709	0.52687
1197.63853	0.52610
1195.70996	0.52533
1193.78140	0.52461
1191.85283	0.52398
1189.92427	0.52354
1187.99570	0.52314
1186.06714	0.52273
1184.13857	0.52256
1182.21001	0.52280
1180.28145	0.52337
1178.35288	0.52416
1176.42432	0.52506
1174.49575	0.52598
1172.56719	0.52679
1170.63862	0.52741
1168.71006	0.52788
1166.78149	0.52831
1164.85293	0.52876
1162.92437	0.52923
1160.99580	0.52957
1159.06724	0.52967
1157.13867	0.52948
1155.21011	0.52899
1153.28154	0.52812
1151.35298	0.52672
1149.42441	0.52463
1147.49585	0.52199
1145.56729	0.51914
1143.63872	0.51643
1141.71016	0.51403
1139.78159	0.51186
1137.85303	0.50998
1135.92446	0.50867
1133.99590	0.50792
1132.06733	0.50735
1130.13877	0.50674
1128.21021	0.50615
1126.28164	0.50557
1124.35308	0.50498
1122.42451	0.50449
1120.49595	0.50435
1118.56738	0.50458
1116.63882	0.50499
1114.71025	0.50548
1112.78169	0.50596
1110.85312	0.50648
1108.92456	0.50721
1106.99600	0.50824
1105.06743	0.50958
1103.13887	0.51091
1101.21030	0.51195
1099.28174	0.51314
1097.35317	0.51505
1095.42461	0.51759
1093.49604	0.52095
1091.56748	0.52563
1089.63892	0.53178
1087.71035	0.53928
1085.78179	0.54785
1083.85322	0.55667
1081.92466	0.56440
1079.99609	0.57006
1078.06753	0.57311
1076.13896	0.57296
1074.21040	0.56969
1072.28184	0.56422
1070.35327	0.55754
1068.42471	0.55032
1066.49614	0.54319
1064.56758	0.53674
1062.63901	0.53116
1060.71045	0.52627
1058.78188	0.52205
1056.85332	0.51853
1054.92476	0.51540
1052.99619	0.51253
1051.06763	0.51012
1049.13906	0.50849
1047.21050	0.50795
1045.28193	0.50818
1043.35337	0.50845
1041.42480	0.50851
1039.49624	0.50853
1037.56768	0.50858
1035.63911	0.50853
1033.71055	0.50822
1031.78198	0.50751
1029.85342	0.50630
1027.92485	0.50469
1025.99629	0.50301
1024.06772	0.50168
1022.13916	0.50098
1020.21060	0.50086
1018.28203	0.50096
1016.35347	0.50092
1014.42490	0.50078
1012.49634	0.50074
1010.56777	0.50074
1008.63921	0.50081
1006.71064	0.50126
1004.78208	0.50231
1002.85352	0.50399
1000.92495	0.50641
998.99639	0.50982
997.06782	0.51408
995.13926	0.51858
993.21069	0.52274
991.28213	0.52606
989.35356	0.52818
987.42500	0.52901
985.49644	0.52890
983.56787	0.52861
981.63931	0.52881
979.71074	0.52963
977.78218	0.53103
975.85361	0.53310
973.92505	0.53577
971.99648	0.53879
970.06792	0.54198
968.13936	0.54550
966.21079	0.54967
964.28223	0.55434
962.35366	0.55914
960.42510	0.56403
958.49653	0.56927
956.56797	0.57492
954.63940	0.58086
952.71084	0.58714
950.78228	0.59382
948.85371	0.60054
946.92515	0.60712
944.99658	0.61363
943.06802	0.61991
941.13945	0.62578
939.21089	0.63124
937.28232	0.63644
935.35376	0.64156
933.42520	0.64686
931.49663	0.65255
929.56807	0.65839
927.63950	0.66423
925.71094	0.67045
923.78237	0.67733
921.85381	0.68440
919.92524	0.69095
917.99668	0.69759
916.06812	0.70553
914.13955	0.71413
912.21099	0.72209
910.28242	0.72965
908.35386	0.73746
906.42529	0.74568
904.49673	0.75439
902.56816	0.76327
900.63960	0.77269
898.71104	0.78314
896.78247	0.79319
894.85391	0.80255
892.92534	0.81271
890.99678	0.82305
889.06821	0.83264
887.13965	0.84276
885.21108	0.85387
883.28252	0.86507
881.35396	0.87622
879.42539	0.88774
877.49683	0.89968
875.56826	0.91217
873.63970	0.92479
871.71113	0.93664
869.78257	0.94767
867.85400	0.95817
865.92544	0.96891
863.99687	0.98037
862.06831	0.99163
860.13975	1.00262
858.21118	1.01435
856.28262	1.02593
854.35405	1.03703
852.42549	1.04840
850.49692	1.05952
848.56836	1.07103
846.63979	1.08403
844.71123	1.09756
842.78267	1.11087
840.85410	1.12293
838.92554	1.13281
836.99697	1.14421
835.06841	1.15883
833.13984	1.17204
831.21128	1.18196
829.28271	1.18917
827.35415	1.19431
825.42559	1.20104
823.49702	1.21276
821.56846	1.22699
819.63989	1.24054
817.71133	1.25919
815.78276	1.28335
813.85420	1.30083
811.92563	1.30821
809.99707	1.31150
808.06851	1.31352
806.13994	1.32368
804.21138	1.35941
802.28281	1.39504
800.35425	1.37806
798.42568	1.35821
796.49712	1.37855
794.56855	1.39839
792.63999	1.38099
790.71143	1.34167
788.78286	1.33450
786.85430	1.38123
784.92573	1.44692
782.99717	1.48294
781.06860	1.50406
779.14004	1.53729
777.21147	1.53042
775.28291	1.47585
773.35435	1.40858
771.42578	1.33547
769.49722	1.28397
767.56865	1.28497
765.64009	1.30706
763.71152	1.28195
761.78296	1.23893
759.85439	1.24397
757.92583	1.30020
755.99727	1.34123
754.06870	1.28927
752.14014	1.22555
750.21157	1.24219
748.28301	1.26432
746.35444	1.21032
744.42588	1.16772
742.49731	1.17038
740.56875	1.11853
738.64019	0.95029
736.71162	0.78334
734.78306	0.67258
732.85449	0.60218
730.92593	0.57334
728.99736	0.58259
727.06880	0.52743
725.14023	0.40188
723.21167	0.28774
721.28311	0.14089
719.35454	0.00049
717.42598	0.00270
715.49741	0.16993
713.56885	0.26950
711.64028	0.25418
709.71172	0.32380
707.78315	0.39380
705.85459	0.37610
703.92603	0.42508
701.99746	0.59135
700.06890	0.68708
698.14033	0.64704
696.21177	0.61293
694.28320	0.50391
692.35464	0.35616
690.42607	0.28613
688.49751	0.29114
686.56895	0.30391
684.64038	0.28674
682.71182	0.33006
680.78325	0.57331
678.85469	1.01705
676.92612	0.74711
674.99756	0.44835
673.06899	0.28889
671.14043	0.25383
669.21187	0.30345
667.28330	0.37549
665.35474	0.40387
663.42617	0.40471
661.49761	0.43218
659.56904	0.46495
657.64048	0.45689
655.71191	0.45164
653.78335	0.40501
651.85479	0.31540
649.92622	0.28945
647.99766	0.34775
646.06909	0.45632
644.14053	0.55446
642.21196	0.52977
640.28340	0.34665
638.35483	0.19707
636.42627	0.16558
634.49771	0.23742
632.56914	0.33529
630.64058	0.36742
628.71201	0.37862
626.78345	0.43975
624.85488	0.52925
622.92632	0.42197
620.99775	0.28398
619.06919	0.28909
617.14062	0.41867
615.21206	0.59811
613.28350	0.70939
611.35493	0.93627
609.42637	1.11882
607.49780	0.47558
605.56924	0.26113
603.64067	0.28633
601.71211	0.38600
599.78354	0.46034
597.85498	0.54574
595.92642	0.48633
593.99785	0.31129
592.06929	0.20312
590.14072	0.20142
588.21216	0.28195
586.28359	0.35096
584.35503	0.32204
582.42646	0.32367
580.49790	0.39178
578.56934	0.42753
576.64077	0.40434
574.71221	0.28874
572.78364	0.17874
570.85508	0.17611
568.92651	0.28910
566.99795	0.46087
565.06938	0.47721
563.14082	0.36442
561.21226	0.30055
559.28369	0.32652
557.35513	0.42272
555.42656	0.43677
553.49800	0.32515
551.56943	0.25654
549.64087	0.25656
547.71230	0.28322
545.78374	0.27679
543.85518	0.23217
541.92661	0.23093
539.99805	0.28402
538.06948	0.33795
536.14092	0.37756
534.21235	0.34945
532.28379	0.27149
530.35522	0.24040
528.42666	0.27642
526.49810	0.27499
524.56953	0.20098
522.64097	0.16738
520.71240	0.19653
518.78384	0.25722
516.85527	0.28854
514.92671	0.28795
512.99814	0.31558
511.06958	0.37841
509.14102	0.46957
507.21245	0.49721
505.28389	0.41790
503.35532	0.31591
501.42676	0.24956
499.49819	0.21925
