3997.91411	0.07434
3995.98555	0.07466
3994.05698	0.07513
3992.12842	0.07554
3990.19985	0.07559
3988.27129	0.07574
3986.34272	0.07632
3984.41416	0.07705
3982.48560	0.07764
3980.55703	0.07805
3978.62847	0.07819
3976.69990	0.07827
3974.77134	0.07861
3972.84277	0.07884
3970.91421	0.07853
3968.98564	0.07819
3967.05708	0.07844
3965.12852	0.07885
3963.19995	0.07905
3961.27139	0.07910
3959.34282	0.07892
3957.41426	0.07883
3955.48569	0.07923
3953.55713	0.07998
3951.62856	0.08069
3949.70000	0.08112
3947.77144	0.08125
3945.84287	0.08104
3943.91431	0.08083
3941.98574	0.08093
3940.05718	0.08077
3938.12861	0.08034
3936.20005	0.08006
3934.27148	0.08006
3932.34292	0.08066
3930.41436	0.08134
3928.48579	0.08122
3926.55723	0.08078
3924.62866	0.08077
3922.70010	0.08094
3920.77153	0.08085
3918.84297	0.08073
3916.91440	0.08053
3914.98584	0.08000
3913.05728	0.07956
3911.12871	0.07939
3909.20015	0.07921
3907.27158	0.07967
3905.34302	0.08161
3903.41445	0.08394
3901.48589	0.08432
3899.55732	0.08303
3897.62876	0.08169
3895.70020	0.08084
3893.77163	0.08086
3891.84307	0.08155
3889.91450	0.08147
3887.98594	0.08060
3886.05737	0.08081
3884.12881	0.08180
3882.20024	0.08219
3880.27168	0.08230
3878.34312	0.08163
3876.41455	0.08076
3874.48599	0.08164
3872.55742	0.08397
3870.62886	0.08582
3868.70029	0.08588
3866.77173	0.08473
3864.84316	0.08504
3862.91460	0.08658
3860.98604	0.08618
3859.05747	0.08461
3857.12891	0.08460
3855.20034	0.08673
3853.27178	0.09031
3851.34321	0.09149
3849.41465	0.08882
3847.48608	0.08653
3845.55752	0.08605
3843.62896	0.08727
3841.70039	0.08950
3839.77183	0.09223
3837.84326	0.09481
3835.91470	0.09520
3833.98613	0.09383
3832.05757	0.09292
3830.12900	0.09257
3828.20044	0.09265
3826.27187	0.09370
3824.34331	0.09524
3822.41475	0.09703
3820.48618	0.09973
3818.55762	0.10129
3816.62905	0.10099
3814.70049	0.10019
3812.77192	0.09914
3810.84336	0.09874
3808.91479	0.09991
3806.98623	0.10283
3805.05767	0.10553
3803.12910	0.10681
3801.20054	0.10844
3799.27197	0.10999
3797.34341	0.11041
3795.41484	0.11055
3793.48628	0.11023
3791.55771	0.10997
3789.62915	0.11050
3787.70059	0.11189
3785.77202	0.11421
3783.84346	0.11667
3781.91489	0.11833
3779.98633	0.11988
3778.05776	0.12146
3776.12920	0.12219
3774.20063	0.12300
3772.27207	0.12490
3770.34351	0.12783
3768.41494	0.13082
3766.48638	0.13282
3764.55781	0.13432
3762.62925	0.13570
3760.70068	0.13794
3758.77212	0.14164
3756.84355	0.14505
3754.91499	0.14730
3752.98643	0.15020
3751.05786	0.15515
3749.12930	0.15996
3747.20073	0.16198
3745.27217	0.16425
3743.34360	0.16805
3741.41504	0.17127
3739.48647	0.17423
3737.55791	0.17889
3735.62935	0.18606
3733.70078	0.19305
3731.77222	0.19618
3729.84365	0.19815
3727.91509	0.20154
3725.98652	0.20698
3724.05796	0.21378
3722.12939	0.22051
3720.20083	0.22681
3718.27227	0.23290
3716.34370	0.23920
3714.41514	0.24640
3712.48657	0.25680
3710.55801	0.27212
3708.62944	0.28656
3706.70088	0.29685
3704.77231	0.30726
3702.84375	0.32058
3700.91519	0.33791
3698.98662	0.35607
3697.05806	0.37309
3695.12949	0.39140
3693.20093	0.41114
3691.27236	0.43339
3689.34380	0.46289
3687.41523	0.49777
3685.48667	0.52658
3683.55811	0.55162
3681.62954	0.57962
3679.70098	0.61180
3677.77241	0.64571
3675.84385	0.68606
3673.91528	0.74080
3671.98672	0.78459
3670.05815	0.82307
3668.12959	0.87598
3666.20103	0.92301
3664.27246	0.96204
3662.34390	1.00469
3660.41533	1.05160
3658.48677	1.09854
3656.55820	1.14883
3654.62964	1.20479
3652.70107	1.25141
3650.77251	1.29265
3648.84395	1.35177
3646.91538	1.42286
3644.98682	1.47078
3643.05825	1.50730
3641.12969	1.54650
3639.20112	1.59083
3637.27256	1.63596
3635.34399	1.67958
3633.41543	1.72242
3631.48687	1.76306
3629.55830	1.80599
3627.62974	1.86243
3625.70117	1.91295
3623.77261	1.94603
3621.84404	1.97814
3619.91548	2.01568
3617.98691	2.06208
3616.05835	2.10705
3614.12979	2.14439
3612.20122	2.18345
3610.27266	2.22291
3608.34409	2.26282
3606.41553	2.30516
3604.48696	2.34480
3602.55840	2.38118
3600.62983	2.42053
3598.70127	2.46209
3596.77271	2.50199
3594.84414	2.54233
3592.91558	2.58295
3590.98701	2.62091
3589.05845	2.65816
3587.12988	2.70371
3585.20132	2.75129
3583.27275	2.78962
3581.34419	2.82664
3579.41562	2.86843
3577.48706	2.91279
3575.55850	2.95579
3573.62993	2.99828
3571.70137	3.03919
3569.77280	3.07785
3567.84424	3.12019
3565.91567	3.17442
3563.98711	3.22656
3562.05854	3.26825
3560.12998	3.30970
3558.20142	3.35299
3556.27285	3.39646
3554.34429	3.43991
3552.41572	3.48746
3550.48716	3.53699
3548.55859	3.58285
3546.63003	3.62824
3544.70146	3.67727
3542.77290	3.72483
3540.84434	3.76787
3538.91577	3.81102
3536.98721	3.85611
3535.05864	3.90472
3533.13008	3.95588
3531.20151	4.00732
3529.27295	4.05866
3527.34438	4.10923
3525.41582	4.15560
3523.48726	4.19931
3521.55869	4.24503
3519.63013	4.29168
3517.70156	4.34025
3515.77300	4.39031
3513.84443	4.44008
3511.91587	4.48832
3509.98730	4.53579
3508.05874	4.58660
3506.13018	4.63532
3504.20161	4.67404
3502.27305	4.71244
3500.34448	4.76173
3498.41592	4.81590
3496.48735	4.86816
3494.55879	4.91557
3492.63022	4.96065
3490.70166	5.01045
3488.77310	5.06474
3486.84453	5.11452
3484.91597	5.15679
3482.98740	5.20041
3481.05884	5.24766
3479.13027	5.29445
3477.20171	5.34263
3475.27314	5.38980
3473.34458	5.43458
3471.41602	5.48360
3469.48745	5.53681
3467.55889	5.58858
3465.63032	5.63921
3463.70176	5.69085
3461.77319	5.73880
3459.84463	5.78663
3457.91606	5.84414
3455.98750	5.90604
3454.05894	5.95616
3452.13037	5.99223
3450.20181	6.02590
3448.27324	6.07041
3446.34468	6.13229
3444.41611	6.19513
3442.48755	6.24709
3440.55898	6.29100
3438.63042	6.33525
3436.70186	6.37805
3434.77329	6.42014
3432.84473	6.46524
3430.91616	6.49689
3428.98760	6.53301
3427.05903	6.60691
3425.13047	6.70649
3423.20190	6.76967
3421.27334	6.78297
3419.34478	6.80885
3417.41621	6.85918
3415.48765	6.90208
3413.55908	6.94291
3411.63052	7.00347
3409.70195	7.07748
3407.77339	7.13910
3405.84482	7.16439
3403.91626	7.18078
3401.98770	7.20726
3400.05913	7.22920
3398.13057	7.25707
3396.20200	7.30934
3394.27344	7.37054
3392.34487	7.40795
3390.41631	7.45818
3388.48774	7.54002
3386.55918	7.60050
3384.63062	7.63064
3382.70205	7.69306
3380.77349	7.75854
3378.84492	7.78351
3376.91636	7.81814
3374.98779	7.82024
3373.05923	7.77858
3371.13066	7.76233
3369.20210	7.78289
3367.27354	7.81320
3365.34497	7.86281
3363.41641	7.91633
3361.48784	7.94367
3359.55928	7.96061
3357.63071	7.95443
3355.70215	7.95459
3353.77358	7.97557
3351.84502	7.98102
3349.91646	7.99942
3347.98789	8.09621
3346.05933	8.18948
3344.13076	8.18622
3342.20220	8.14567
3340.27363	8.09805
3338.34507	8.09490
3336.41650	8.16717
3334.48794	8.28562
3332.55937	8.35728
3330.63081	8.31545
3328.70225	8.22128
3326.77368	8.16616
3324.84512	8.14976
3322.91655	8.10382
3320.98799	8.07257
3319.05942	8.09752
3317.13086	8.13045
3315.20229	8.12323
3313.27373	8.13193
3311.34517	8.16968
3309.41660	8.14700
3307.48804	8.12350
3305.55947	8.19689
3303.63091	8.31372
3301.70234	8.36483
3299.77378	8.34821
3297.84521	8.29749
3295.91665	8.26292
3293.98809	8.29617
3292.05952	8.34041
3290.13096	8.30441
3288.20239	8.23231
3286.27383	8.24502
3284.34526	8.32149
3282.41670	8.32126
3280.48813	8.26788
3278.55957	8.25679
3276.63101	8.26849
3274.70244	8.32798
3272.77388	8.35293
3270.84531	8.22103
3268.91675	8.05426
3266.98818	7.98224
3265.05962	8.03926
3263.13105	8.16580
3261.20249	8.28703
3259.27393	8.32033
3257.34536	8.25973
3255.41680	8.23369
3253.48823	8.28374
3251.55967	8.33668
3249.63110	8.29812
3247.70254	8.22326
3245.77397	8.21719
3243.84541	8.24417
3241.91685	8.28003
3239.98828	8.33681
3238.05972	8.30471
3236.13115	8.18931
3234.20259	8.12687
3232.27402	8.14795
3230.34546	8.18941
3228.41689	8.18051
3226.48833	8.19011
3224.55977	8.26488
3222.63120	8.26408
3220.70264	8.14446
3218.77407	8.02775
3216.84551	7.95817
3214.91694	7.94098
3212.98838	7.95502
3211.05981	7.93020
3209.13125	7.87097
3207.20269	7.84242
3205.27412	7.86770
3203.34556	7.89482
3201.41699	7.84913
3199.48843	7.74906
3197.55986	7.68198
3195.63130	7.66871
3193.70273	7.65651
3191.77417	7.63006
3189.84561	7.62649
3187.91704	7.61361
3185.98848	7.53266
3184.05991	7.43518
3182.13135	7.36224
3180.20278	7.30929
3178.27422	7.27318
3176.34565	7.22488
3174.41709	7.14784
3172.48853	7.06185
3170.55996	7.00833
3168.63140	6.98647
3166.70283	6.93429
3164.77427	6.84667
3162.84570	6.76480
3160.91714	6.68910
3158.98857	6.61545
3157.06001	6.55229
3155.13145	6.50345
3153.20288	6.45655
3151.27432	6.39209
3149.34575	6.32486
3147.41719	6.27128
3145.48862	6.20491
3143.56006	6.12117
3141.63149	6.05577
3139.70293	6.00738
3137.77437	5.94416
3135.84580	5.86576
3133.91724	5.79265
3131.98867	5.72452
3130.06011	5.65235
3128.13154	5.57802
3126.20298	5.50823
3124.27441	5.44351
3122.34585	5.37535
3120.41729	5.30411
3118.48872	5.23339
3116.56016	5.16128
3114.63159	5.08686
3112.70303	5.01106
3110.77446	4.93704
3108.84590	4.86778
3106.91733	4.80453
3104.98877	4.74311
3103.06021	4.67974
3101.13164	4.61620
3099.20308	4.55426
3097.27451	4.49215
3095.34595	4.42779
3093.41738	4.36298
3091.48882	4.29910
3089.56025	4.23491
3087.63169	4.17011
3085.70312	4.10660
3083.77456	4.04618
3081.84600	3.98837
3079.91743	3.92945
3077.98887	3.86746
3076.06030	3.80596
3074.13174	3.74714
3072.20317	3.69069
3070.27461	3.63634
3068.34604	3.58112
3066.41748	3.52375
3064.48892	3.46802
3062.56035	3.41504
3060.63179	3.36236
3058.70322	3.30920
3056.77466	3.25612
3054.84609	3.20290
3052.91753	3.14923
3050.98896	3.09663
3049.06040	3.04641
3047.13184	2.99780
3045.20327	2.94979
3043.27471	2.90182
3041.34614	2.85338
3039.41758	2.80547
3037.48901	2.75908
3035.56045	2.71340
3033.63188	2.66803
3031.70332	2.62231
3029.77476	2.57640
3027.84619	2.53247
3025.91763	2.49095
3023.98906	2.45009
3022.06050	2.40875
3020.13193	2.36765
3018.20337	2.32687
3016.27480	2.28546
3014.34624	2.24491
3012.41768	2.20663
3010.48911	2.16882
3008.56055	2.13045
3006.63198	2.09288
3004.70342	2.05694
3002.77485	2.02244
3000.84629	1.98890
2998.91772	1.95577
2996.98916	1.92331
2995.06060	1.89170
2993.13203	1.86023
2991.20347	1.82868
2989.27490	1.79788
2987.34634	1.76827
2985.41777	1.73966
2983.48921	1.71168
2981.56064	1.68404
2979.63208	1.65661
2977.70352	1.62918
2975.77495	1.60212
2973.84639	1.57624
2971.91782	1.55135
2969.98926	1.52638
2968.06069	1.50094
2966.13213	1.47545
2964.20356	1.45035
2962.27500	1.42596
2960.34644	1.40203
2958.41787	1.37778
2956.48931	1.35303
2954.56074	1.32850
2952.63218	1.30490
2950.70361	1.28226
2948.77505	1.26011
2946.84648	1.23784
2944.91792	1.21537
2942.98936	1.19309
2941.06079	1.17095
2939.13223	1.14901
2937.20366	1.12729
2935.27510	1.10529
2933.34653	1.08279
2931.41797	1.06026
2929.48940	1.03845
2927.56084	1.01754
2925.63228	0.99682
2923.70371	0.97600
2921.77515	0.95525
2919.84658	0.93530
2917.91802	0.91729
2915.98945	0.90144
2914.06089	0.88764
2912.13232	0.87603
2910.20376	0.86545
2908.27520	0.85381
2906.34663	0.84088
2904.41807	0.82811
2902.48950	0.81601
2900.56094	0.80375
2898.63237	0.79097
2896.70381	0.77815
2894.77524	0.76552
2892.84668	0.75303
2890.91812	0.74098
2888.98955	0.72997
2887.06099	0.71985
2885.13242	0.70997
2883.20386	0.70004
2881.27529	0.69013
2879.34673	0.68031
2877.41816	0.67062
2875.48960	0.66082
2873.56104	0.65047
2871.63247	0.63940
2869.70391	0.62780
2867.77534	0.61589
2865.84678	0.60358
2863.91821	0.59088
2861.98965	0.57808
2860.06108	0.56542
2858.13252	0.55303
2856.20396	0.54055
2854.27539	0.52784
2852.34683	0.51542
2850.41826	0.50434
2848.48970	0.49636
2846.56113	0.49202
2844.63257	0.48939
2842.70400	0.48647
2840.77544	0.48271
2838.84687	0.47832
2836.91831	0.47348
2834.98975	0.46830
2833.06118	0.46294
2831.13262	0.45740
2829.20405	0.45169
2827.27549	0.44579
2825.34692	0.43974
2823.41836	0.43376
2821.48979	0.42796
2819.56123	0.42221
2817.63267	0.41624
2815.70410	0.41017
2813.77554	0.40430
2811.84697	0.39864
2809.91841	0.39322
2807.98984	0.38802
2806.06128	0.38287
2804.13271	0.37764
2802.20415	0.37242
2800.27559	0.36728
2798.34702	0.36221
2796.41846	0.35719
2794.48989	0.35231
2792.56133	0.34758
2790.63276	0.34289
2788.70420	0.33817
2786.77563	0.33373
2784.84707	0.32964
2782.91851	0.32557
2780.98994	0.32145
2779.06138	0.31731
2777.13281	0.31304
2775.20425	0.30873
2773.27568	0.30459
2771.34712	0.30068
2769.41855	0.29705
2767.48999	0.29361
2765.56143	0.29017
2763.63286	0.28672
2761.70430	0.28321
2759.77573	0.27963
2757.84717	0.27617
2755.91860	0.27296
2753.99004	0.26995
2752.06147	0.26690
2750.13291	0.26362
2748.20435	0.26041
2746.27578	0.25757
2744.34722	0.25478
2742.41865	0.25184
2740.49009	0.24906
2738.56152	0.24654
2736.63296	0.24408
2734.70439	0.24156
2732.77583	0.23898
2730.84727	0.23634
2728.91870	0.23373
2726.99014	0.23128
2725.06157	0.22898
2723.13301	0.22682
2721.20444	0.22479
2719.27588	0.22277
2717.34731	0.22062
2715.41875	0.21841
2713.49019	0.21626
2711.56162	0.21429
2709.63306	0.21246
2707.70449	0.21076
2705.77593	0.20922
2703.84736	0.20764
2701.91880	0.20600
2699.99023	0.20440
2698.06167	0.20281
2696.13311	0.20132
2694.20454	0.19995
2692.27598	0.19855
2690.34741	0.19715
2688.41885	0.19579
2686.49028	0.19437
2684.56172	0.19299
2682.63315	0.19182
2680.70459	0.19076
2678.77603	0.18952
2676.84746	0.18820
2674.91890	0.18705
2672.99033	0.18593
2671.06177	0.18463
2669.13320	0.18327
2667.20464	0.18215
2665.27607	0.18132
2663.34751	0.18048
2661.41895	0.17952
2659.49038	0.17865
2657.56182	0.17791
2655.63325	0.17707
2653.70469	0.17606
2651.77612	0.17513
2649.84756	0.17451
2647.91899	0.17403
2645.99043	0.17335
2644.06187	0.17254
2642.13330	0.17178
2640.20474	0.17119
2638.27617	0.17071
2636.34761	0.17024
2634.41904	0.16983
2632.49048	0.16953
2630.56191	0.16921
2628.63335	0.16871
2626.70479	0.16810
2624.77622	0.16758
2622.84766	0.16717
2620.91909	0.16677
2618.99053	0.16641
2617.06196	0.16623
2615.13340	0.16604
2613.20483	0.16570
2611.27627	0.16544
2609.34771	0.16536
2607.41914	0.16541
2605.49058	0.16546
2603.56201	0.16544
2601.63345	0.16540
2599.70488	0.16529
2597.77632	0.16512
2595.84775	0.16496
2593.91919	0.16481
2591.99062	0.16475
2590.06206	0.16487
2588.13350	0.16518
2586.20493	0.16548
2584.27637	0.16555
2582.34780	0.16551
2580.41924	0.16563
2578.49067	0.16592
2576.56211	0.16626
2574.63354	0.16666
2572.70498	0.16711
2570.77642	0.16742
2568.84785	0.16756
2566.91929	0.16777
2564.99072	0.16818
2563.06216	0.16858
2561.13359	0.16891
2559.20503	0.16934
2557.27646	0.16989
2555.34790	0.17040
2553.41934	0.17091
2551.49077	0.17150
2549.56221	0.17210
2547.63364	0.17259
2545.70508	0.17295
2543.77651	0.17333
2541.84795	0.17386
2539.91938	0.17439
2537.99082	0.17487
2536.06226	0.17548
2534.13369	0.17615
2532.20513	0.17687
2530.27656	0.17775
2528.34800	0.17856
2526.41943	0.17913
2524.49087	0.17972
2522.56230	0.18047
2520.63374	0.18125
2518.70518	0.18200
2516.77661	0.18263
2514.84805	0.18315
2512.91948	0.18371
2510.99092	0.18448
2509.06235	0.18542
2507.13379	0.18640
2505.20522	0.18724
2503.27666	0.18792
2501.34810	0.18858
2499.41953	0.18925
2497.49097	0.18988
2495.56240	0.19070
2493.63384	0.19171
2491.70527	0.19260
2489.77671	0.19331
2487.84814	0.19407
2485.91958	0.19494
2483.99102	0.19582
2482.06245	0.19670
2480.13389	0.19753
2478.20532	0.19829
2476.27676	0.19906
2474.34819	0.19997
2472.41963	0.20095
2470.49106	0.20189
2468.56250	0.20276
2466.63394	0.20359
2464.70537	0.20445
2462.77681	0.20536
2460.84824	0.20636
2458.91968	0.20743
2456.99111	0.20841
2455.06255	0.20929
2453.13398	0.21014
2451.20542	0.21095
2449.27686	0.21182
2447.34829	0.21283
2445.41973	0.21381
2443.49116	0.21470
2441.56260	0.21562
2439.63403	0.21660
2437.70547	0.21762
2435.77690	0.21878
2433.84834	0.21999
2431.91978	0.22097
2429.99121	0.22178
2428.06265	0.22264
2426.13408	0.22359
2424.20552	0.22468
2422.27695	0.22595
2420.34839	0.22721
2418.41982	0.22827
2416.49126	0.22920
2414.56270	0.23021
2412.63413	0.23141
2410.70557	0.23265
2408.77700	0.23381
2406.84844	0.23503
2404.91987	0.23627
2402.99131	0.23737
2401.06274	0.23848
2399.13418	0.23964
2397.20562	0.24084
2395.27705	0.24212
2393.34849	0.24340
2391.41992	0.24465
2389.49136	0.24597
2387.56279	0.24760
2385.63423	0.24977
2383.70566	0.25249
2381.77710	0.25573
2379.84854	0.25948
2377.91997	0.26374
2375.99141	0.26865
2374.06284	0.27446
2372.13428	0.28083
2370.20571	0.28718
2368.27715	0.29345
2366.34858	0.29954
2364.42002	0.30525
2362.49146	0.31094
2360.56289	0.31571
2358.63433	0.31724
2356.70576	0.31565
2354.77720	0.31244
2352.84863	0.30806
2350.92007	0.30320
2348.99150	0.30017
2347.06294	0.30084
2345.13437	0.30597
2343.20581	0.31329
2341.27725	0.31753
2339.34868	0.31822
2337.42012	0.31819
2335.49155	0.31895
2333.56299	0.32028
2331.63442	0.32172
2329.70586	0.32262
2327.77729	0.32242
2325.84873	0.32156
2323.92017	0.32109
2321.99160	0.32093
2320.06304	0.32052
2318.13447	0.32000
2316.20591	0.31960
2314.27734	0.31954
2312.34878	0.32002
2310.42021	0.32082
2308.49165	0.32140
2306.56309	0.32156
2304.63452	0.32175
2302.70596	0.32246
2300.77739	0.32352
2298.84883	0.32467
2296.92026	0.32600
2294.99170	0.32743
2293.06313	0.32880
2291.13457	0.33015
2289.20601	0.33154
2287.27744	0.33282
2285.34888	0.33407
2283.42031	0.33560
2281.49175	0.33745
2279.56318	0.33946
2277.63462	0.34152
2275.70605	0.34374
2273.77749	0.34603
2271.84893	0.34820
2269.92036	0.35030
2267.99180	0.35239
2266.06323	0.35440
2264.13467	0.35642
2262.20610	0.35856
2260.27754	0.36066
2258.34897	0.36265
2256.42041	0.36458
2254.49185	0.36656
2252.56328	0.36863
2250.63472	0.37075
2248.70615	0.37286
2246.77759	0.37498
2244.84902	0.37723
2242.92046	0.37958
2240.99189	0.38187
2239.06333	0.38397
2237.13477	0.38603
2235.20620	0.38820
2233.27764	0.39039
2231.34907	0.39257
2229.42051	0.39473
2227.49194	0.39689
2225.56338	0.39910
2223.63481	0.40128
2221.70625	0.40352
2219.77769	0.40590
2217.84912	0.40823
2215.92056	0.41037
2213.99199	0.41250
2212.06343	0.41466
2210.13486	0.41679
2208.20630	0.41889
2206.27773	0.42092
2204.34917	0.42295
2202.42061	0.42503
2200.49204	0.42707
2198.56348	0.42906
2196.63491	0.43094
2194.70635	0.43279
2192.77778	0.43477
2190.84922	0.43679
2188.92065	0.43868
2186.99209	0.44042
2185.06353	0.44219
2183.13496	0.44401
2181.20640	0.44580
2179.27783	0.44745
2177.34927	0.44899
2175.42070	0.45055
2173.49214	0.45217
2171.56357	0.45374
2169.63501	0.45521
2167.70645	0.45655
2165.77788	0.45766
2163.84932	0.45863
2161.92075	0.45964
2159.99219	0.46069
2158.06362	0.46176
2156.13506	0.46282
2154.20649	0.46378
2152.27793	0.46459
2150.34937	0.46530
2148.42080	0.46594
2146.49224	0.46651
2144.56367	0.46707
2142.63511	0.46764
2140.70654	0.46805
2138.77798	0.46821
2136.84941	0.46823
2134.92085	0.46831
2132.99229	0.46842
2131.06372	0.46834
2129.13516	0.46816
2127.20659	0.46807
2125.27803	0.46785
2123.34946	0.46732
2121.42090	0.46670
2119.49233	0.46611
2117.56377	0.46552
2115.63521	0.46489
2113.70664	0.46409
2111.77808	0.46310
2109.84951	0.46208
2107.92095	0.46118
2105.99238	0.46029
2104.06382	0.45919
2102.13525	0.45779
2100.20669	0.45634
2098.27812	0.45496
2096.34956	0.45354
2094.42100	0.45208
2092.49243	0.45060
2090.56387	0.44898
2088.63530	0.44715
2086.70674	0.44526
2084.77817	0.44336
2082.84961	0.44145
2080.92104	0.43948
2078.99248	0.43745
2077.06392	0.43538
2075.13535	0.43327
2073.20679	0.43110
2071.27822	0.42892
2069.34966	0.42668
2067.42109	0.42440
2065.49253	0.42214
2063.56396	0.41981
2061.63540	0.41733
2059.70684	0.41476
2057.77827	0.41215
2055.84971	0.40950
2053.92114	0.40682
2051.99258	0.40422
2050.06401	0.40167
2048.13545	0.39917
2046.20688	0.39666
2044.27832	0.39405
2042.34976	0.39125
2040.42119	0.38837
2038.49263	0.38559
2036.56406	0.38288
2034.63550	0.38007
2032.70693	0.37717
2030.77837	0.37433
2028.84980	0.37155
2026.92124	0.36877
2024.99268	0.36600
2023.06411	0.36327
2021.13555	0.36060
2019.20698	0.35794
2017.27842	0.35516
2015.34985	0.35219
2013.42129	0.34922
2011.49272	0.34640
2009.56416	0.34366
2007.63560	0.34085
2005.70703	0.33807
2003.77847	0.33541
2001.84990	0.33282
1999.92134	0.33021
1997.99277	0.32756
1996.06421	0.32500
1994.13564	0.32260
1992.20708	0.32020
1990.27852	0.31754
1988.34995	0.31484
1986.42139	0.31230
1984.49282	0.30987
1982.56426	0.30748
1980.63569	0.30509
1978.70713	0.30273
1976.77856	0.30044
1974.85000	0.29820
1972.92144	0.29592
1970.99287	0.29369
1969.06431	0.29171
1967.13574	0.28987
1965.20718	0.28775
1963.27861	0.28552
1961.35005	0.28344
1959.42148	0.28151
1957.49292	0.27976
1955.56436	0.27811
1953.63579	0.27635
1951.70723	0.27450
1949.77866	0.27276
1947.85010	0.27115
1945.92153	0.26974
1943.99297	0.26849
1942.06440	0.26707
1940.13584	0.26534
1938.20728	0.26368
1936.27871	0.26221
1934.35015	0.26081
1932.42158	0.25947
1930.49302	0.25814
1928.56445	0.25692
1926.63589	0.25590
1924.70732	0.25521
1922.77876	0.25458
1920.85020	0.25363
1918.92163	0.25258
1916.99307	0.25154
1915.06450	0.25033
1913.13594	0.24924
1911.20737	0.24856
1909.27881	0.24799
1907.35024	0.24727
1905.42168	0.24652
1903.49312	0.24584
1901.56455	0.24514
1899.63599	0.24455
1897.70742	0.24423
1895.77886	0.24399
1893.85029	0.24362
1891.92173	0.24320
1889.99316	0.24296
1888.06460	0.24262
1886.13604	0.24219
1884.20747	0.24194
1882.27891	0.24173
1880.35034	0.24151
1878.42178	0.24135
1876.49321	0.24126
1874.56465	0.24122
1872.63608	0.24138
1870.70752	0.24189
1868.77896	0.24283
1866.85039	0.24322
1864.92183	0.24273
1862.99326	0.24240
1861.06470	0.24252
1859.13613	0.24285
1857.20757	0.24312
1855.27900	0.24341
1853.35044	0.24384
1851.42187	0.24449
1849.49331	0.24531
1847.56475	0.24633
1845.63618	0.24750
1843.70762	0.24853
1841.77905	0.24892
1839.85049	0.24900
1837.92192	0.24956
1835.99336	0.25042
1834.06479	0.25139
1832.13623	0.25258
1830.20767	0.25433
1828.27910	0.25591
1826.35054	0.25681
1824.42197	0.25787
1822.49341	0.25888
1820.56484	0.25990
1818.63628	0.26122
1816.70771	0.26285
1814.77915	0.26455
1812.85059	0.26640
1810.92202	0.26849
1808.99346	0.27047
1807.06489	0.27223
1805.13633	0.27401
1803.20776	0.27632
1801.27920	0.27920
1799.35063	0.28221
1797.42207	0.28466
1795.49351	0.28707
1793.56494	0.29005
1791.63638	0.29374
1789.70781	0.29683
1787.77925	0.29898
1785.85068	0.30187
1783.92212	0.30556
1781.99355	0.30963
1780.06499	0.31397
1778.13643	0.31827
1776.20786	0.32222
1774.27930	0.32668
1772.35073	0.33296
1770.42217	0.33941
1768.49360	0.34415
1766.56504	0.34864
1764.63647	0.35355
1762.70791	0.35925
1760.77935	0.36649
1758.85078	0.37305
1756.92222	0.37954
1754.99365	0.38667
1753.06509	0.39315
1751.13652	0.40107
1749.20796	0.41132
1747.27939	0.42128
1745.35083	0.42972
1743.42227	0.43879
1741.49370	0.44925
1739.56514	0.46203
1737.63657	0.47492
1735.70801	0.48624
1733.77944	0.50343
1731.85088	0.52381
1729.92231	0.53943
1727.99375	0.55497
1726.06519	0.57163
1724.13662	0.59023
1722.20806	0.61054
1720.27949	0.62929
1718.35093	0.65173
1716.42236	0.68544
1714.49380	0.71625
1712.56523	0.74003
1710.63667	0.76323
1708.70811	0.78870
1706.77954	0.81823
1704.85098	0.85419
1702.92241	0.88621
1700.99385	0.91746
1699.06528	0.96483
1697.13672	1.00863
1695.20815	1.05304
1693.27959	1.09591
1691.35103	1.13092
1689.42246	1.17228
1687.49390	1.21612
1685.56533	1.25815
1683.63677	1.32511
1681.70820	1.39494
1679.77964	1.43711
1677.85107	1.47683
1675.92251	1.52331
1673.99395	1.58267
1672.06538	1.63627
1670.13682	1.68890
1668.20825	1.75844
1666.27969	1.81517
1664.35112	1.86328
1662.42256	1.92472
1660.49399	1.99685
1658.56543	2.05334
1656.63687	2.09858
1654.70830	2.14056
1652.77974	2.20369
1650.85117	2.25747
1648.92261	2.27329
1646.99404	2.29769
1645.06548	2.32262
1643.13691	2.33611
1641.20835	2.34239
1639.27979	2.35026
1637.35122	2.35562
1635.42266	2.35341
1633.49409	2.34331
1631.56553	2.32732
1629.63696	2.30725
1627.70840	2.27560
1625.77983	2.24277
1623.85127	2.20228
1621.92271	2.14867
1619.99414	2.10063
1618.06558	2.05570
1616.13701	1.98997
1614.20845	1.92158
1612.27988	1.87047
1610.35132	1.81785
1608.42275	1.76054
1606.49419	1.70430
1604.56562	1.65351
1602.63706	1.60470
1600.70850	1.55693
1598.77993	1.51305
1596.85137	1.47182
1594.92280	1.43198
1592.99424	1.39389
1591.06567	1.35922
1589.13711	1.32696
1587.20854	1.29744
1585.27998	1.27065
1583.35142	1.24609
1581.42285	1.22414
1579.49429	1.20582
1577.56572	1.18987
1575.63716	1.17016
1573.70859	1.15248
1571.78003	1.14168
1569.85146	1.13157
1567.92290	1.12060
1565.99434	1.11293
1564.06577	1.10820
1562.13721	1.10508
1560.20864	1.10437
1558.28008	1.10824
1556.35151	1.11193
1554.42295	1.11354
1552.49438	1.11579
1550.56582	1.11641
1548.63726	1.11392
1546.70869	1.10868
1544.78013	1.10054
1542.85156	1.08923
1540.92300	1.07143
1538.99443	1.04113
1537.06587	1.01896
1535.13730	1.00404
1533.20874	0.98349
1531.28018	0.96146
1529.35161	0.94588
1527.42305	0.93150
1525.49448	0.91673
1523.56592	0.90438
1521.63735	0.89259
1519.70879	0.88036
1517.78022	0.87016
1515.85166	0.85816
1513.92310	0.84530
1511.99453	0.83428
1510.06597	0.82473
1508.13740	0.81558
1506.20884	0.79924
1504.28027	0.78446
1502.35171	0.77659
1500.42314	0.77004
1498.49458	0.76329
1496.56602	0.75518
1494.63745	0.74678
1492.70889	0.74052
1490.78032	0.73540
1488.85176	0.72940
1486.92319	0.72326
1484.99463	0.71806
1483.06606	0.71398
1481.13750	0.71091
1479.20894	0.70866
1477.28037	0.70742
1475.35181	0.70723
1473.42324	0.70744
1471.49468	0.70609
1469.56611	0.70325
1467.63755	0.70064
1465.70898	0.69889
1463.78042	0.69806
1461.85186	0.69798
1459.92329	0.69882
1457.99473	0.70060
1456.06616	0.70072
1454.13760	0.69789
1452.20903	0.69512
1450.28047	0.69267
1448.35190	0.69037
1446.42334	0.68787
1444.49478	0.68530
1442.56621	0.68286
1440.63765	0.68032
1438.70908	0.67772
1436.78052	0.67464
1434.85195	0.67084
1432.92339	0.66779
1430.99482	0.66598
1429.06626	0.66508
1427.13770	0.66486
1425.20913	0.66545
1423.28057	0.66664
1421.35200	0.66775
1419.42344	0.66868
1417.49487	0.66867
1415.56631	0.66735
1413.63774	0.66629
1411.70918	0.66606
1409.78062	0.66651
1407.85205	0.66760
1405.92349	0.66932
1403.99492	0.67092
1402.06636	0.67148
1400.13779	0.67128
1398.20923	0.67024
1396.28066	0.66792
1394.35210	0.66409
1392.42354	0.65932
1390.49497	0.65496
1388.56641	0.65088
1386.63784	0.64602
1384.70928	0.64060
1382.78071	0.63547
1380.85215	0.63064
1378.92358	0.62653
1376.99502	0.62363
1375.06646	0.62184
1373.13789	0.62054
1371.20933	0.61950
1369.28076	0.61874
1367.35220	0.61772
1365.42363	0.61638
1363.49507	0.61515
1361.56650	0.61374
1359.63794	0.61187
1357.70937	0.61013
1355.78081	0.60880
1353.85225	0.60781
1351.92368	0.60708
1349.99512	0.60639
1348.06655	0.60545
1346.13799	0.60435
1344.20942	0.60344
1342.28086	0.60288
1340.35229	0.60261
1338.42373	0.60209
1336.49517	0.60112
1334.56660	0.60032
1332.63804	0.60001
1330.70947	0.60013
1328.78091	0.60054
1326.85234	0.60112
1324.92378	0.60189
1322.99521	0.60281
1321.06665	0.60373
1319.13809	0.60453
1317.20952	0.60494
1315.28096	0.60487
1313.35239	0.60449
1311.42383	0.60384
1309.49526	0.60307
1307.56670	0.60239
1305.63813	0.60184
1303.70957	0.60125
1301.78101	0.60041
1299.85244	0.59924
1297.92388	0.59794
1295.99531	0.59660
1294.06675	0.59516
1292.13818	0.59376
1290.20962	0.59251
1288.28105	0.59128
1286.35249	0.58994
1284.42393	0.58864
1282.49536	0.58736
1280.56680	0.58588
1278.63823	0.58420
1276.70967	0.58267
1274.78110	0.58146
1272.85254	0.58043
1270.92397	0.57956
1268.99541	0.57883
1267.06685	0.57808
1265.13828	0.57711
1263.20972	0.57603
1261.28115	0.57510
1259.35259	0.57432
1257.42402	0.57364
1255.49546	0.57333
1253.56689	0.57346
1251.63833	0.57366
1249.70977	0.57370
1247.78120	0.57368
1245.85264	0.57353
1243.92407	0.57295
1241.99551	0.57199
1240.06694	0.57070
1238.13838	0.56897
1236.20981	0.56682
1234.28125	0.56442
1232.35269	0.56204
1230.42412	0.55981
1228.49556	0.55766
1226.56699	0.55557
1224.63843	0.55353
1222.70986	0.55150
1220.78130	0.54980
1218.85273	0.54855
1216.92417	0.54739
1214.99561	0.54612
1213.06704	0.54493
1211.13848	0.54400
1209.20991	0.54339
1207.28135	0.54286
1205.35278	0.54203
1203.42422	0.54097
1201.49565	0.53995
1199.56709	0.53898
1197.63853	0.53802
1195.70996	0.53716
1193.78140	0.53644
1191.85283	0.53577
1189.92427	0.53516
1187.99570	0.53461
1186.06714	0.53427
1184.13857	0.53435
1182.21001	0.53478
1180.28145	0.53548
1178.35288	0.53662
1176.42432	0.53814
1174.49575	0.53953
1172.56719	0.54038
1170.63862	0.54071
1168.71006	0.54085
1166.78149	0.54092
1164.85293	0.54088
1162.92437	0.54092
1160.99580	0.54095
1159.06724	0.54069
1157.13867	0.54014
1155.21011	0.53937
1153.28154	0.53833
1151.35298	0.53677
1149.42441	0.53454
1147.49585	0.53182
1145.56729	0.52888
1143.63872	0.52606
1141.71016	0.52376
1139.78159	0.52213
1137.85303	0.52105
1135.92446	0.52047
1133.99590	0.52024
1132.06733	0.52017
1130.13877	0.52021
1128.21021	0.52015
1126.28164	0.51981
1124.35308	0.51925
1122.42451	0.51879
1120.49595	0.51867
1118.56738	0.51873
1116.63882	0.51894
1114.71025	0.51931
1112.78169	0.51976
1110.85312	0.52031
1108.92456	0.52101
1106.99600	0.52184
1105.06743	0.52276
1103.13887	0.52369
1101.21030	0.52466
1099.28174	0.52609
1097.35317	0.52822
1095.42461	0.53091
1093.49604	0.53418
1091.56748	0.53849
1089.63892	0.54433
1087.71035	0.55176
1085.78179	0.56023
1083.85322	0.56846
1081.92466	0.57535
1079.99609	0.58043
1078.06753	0.58324
1076.13896	0.58321
1074.21040	0.58019
1072.28184	0.57477
1070.35327	0.56802
1068.42471	0.56079
1066.49614	0.55376
1064.56758	0.54750
1062.63901	0.54197
1060.71045	0.53706
1058.78188	0.53293
1056.85332	0.52945
1054.92476	0.52628
1052.99619	0.52336
1051.06763	0.52088
1049.13906	0.51900
1047.21050	0.51770
1045.28193	0.51689
1043.35337	0.51642
1041.42480	0.51615
1039.49624	0.51596
1037.56768	0.51557
1035.63911	0.51502
1033.71055	0.51450
1031.78198	0.51374
1029.85342	0.51245
1027.92485	0.51088
1025.99629	0.50922
1024.06772	0.50763
1022.13916	0.50659
1020.21060	0.50634
1018.28203	0.50646
1016.35347	0.50654
1014.42490	0.50657
1012.49634	0.50656
1010.56777	0.50648
1008.63921	0.50651
1006.71064	0.50697
1004.78208	0.50814
1002.85352	0.51007
1000.92495	0.51265
998.99639	0.51588
997.06782	0.51971
995.13926	0.52402
993.21069	0.52843
991.28213	0.53195
989.35356	0.53385
987.42500	0.53449
985.49644	0.53460
983.56787	0.53462
981.63931	0.53477
979.71074	0.53522
977.78218	0.53621
975.85361	0.53790
973.92505	0.54017
971.99648	0.54296
970.06792	0.54636
968.13936	0.55011
966.21079	0.55404
964.28223	0.55826
962.35366	0.56293
960.42510	0.56795
958.49653	0.57316
956.56797	0.57863
954.63940	0.58446
952.71084	0.59051
950.78228	0.59670
948.85371	0.60317
946.92515	0.60965
944.99658	0.61580
943.06802	0.62205
941.13945	0.62840
939.21089	0.63421
937.28232	0.63932
935.35376	0.64455
933.42520	0.65024
931.49663	0.65578
929.56807	0.66156
927.63950	0.66814
925.71094	0.67470
923.78237	0.68074
921.85381	0.68670
919.92524	0.69285
917.99668	0.69950
916.06812	0.70699
914.13955	0.71518
912.21099	0.72335
910.28242	0.73096
908.35386	0.73857
906.42529	0.74692
904.49673	0.75574
902.56816	0.76484
900.63960	0.77446
898.71104	0.78407
896.78247	0.79328
894.85391	0.80299
892.92534	0.81364
890.99678	0.82403
889.06821	0.83367
887.13965	0.84356
885.21108	0.85431
883.28252	0.86568
881.35396	0.87762
879.42539	0.89037
877.49683	0.90268
875.56826	0.91323
873.63970	0.92369
871.71113	0.93576
869.78257	0.94812
867.85400	0.95961
865.92544	0.97070
863.99687	0.98120
862.06831	0.99152
860.13975	1.00274
858.21118	1.01454
856.28262	1.02570
854.35405	1.03666
852.42549	1.04872
850.49692	1.06098
848.56836	1.07300
846.63979	1.08624
844.71123	1.09937
842.78267	1.11081
840.85410	1.12209
838.92554	1.13322
836.99697	1.14335
835.06841	1.15186
833.13984	1.15942
831.21128	1.17023
829.28271	1.18536
827.35415	1.20050
825.42559	1.21234
823.49702	1.22164
821.56846	1.23282
819.63989	1.24787
817.71133	1.26044
815.78276	1.27106
813.85420	1.28860
811.92563	1.30500
809.99707	1.30843
808.06851	1.31317
806.13994	1.32381
804.21138	1.31941
802.28281	1.31449
800.35425	1.33535
798.42568	1.37098
796.49712	1.40212
794.56855	1.41256
792.63999	1.39484
790.71143	1.39093
788.78286	1.45310
786.85430	1.55419
784.92573	1.57244
782.99717	1.49880
781.06860	1.42051
779.14004	1.36405
777.21147	1.33894
775.28291	1.36209
773.35435	1.47161
771.42578	1.69300
769.49722	1.86727
767.56865	1.85105
765.64009	1.77936
763.71152	1.86436
761.78296	2.06099
759.85439	1.69562
757.92583	1.50352
755.99727	1.55503
754.06870	1.81135
752.14014	2.25729
750.21157	2.14709
748.28301	2.42985
746.35444	2.16897
744.42588	1.41481
742.49731	1.14990
740.56875	1.08323
738.64019	1.15179
736.71162	1.19080
734.78306	0.99216
732.85449	0.79102
730.92593	0.67669
728.99736	0.57586
727.06880	0.49169
725.14023	0.48724
723.21167	0.49445
721.28311	0.31328
719.35454	0.07872
717.42598	-0.17662
715.49741	-0.14295
713.56885	-0.10901
711.64028	-0.16795
709.71172	-0.29491
707.78315	-0.15987
705.85459	0.08067
703.92603	0.28379
701.99746	0.37409
700.06890	0.31725
698.14033	0.25047
696.21177	0.29798
694.28320	0.43182
692.35464	0.53019
690.42607	0.59071
688.49751	0.70625
686.56895	1.41059
684.64038	4.10784
682.71182	4.09627
680.78325	1.58764
678.85469	0.86568
676.92612	0.75484
674.99756	0.74379
673.06899	0.62167
671.14043	0.37506
669.21187	0.21372
667.28330	0.17948
665.35474	0.28826
663.42617	0.48987
661.49761	0.54197
659.56904	0.50125
657.64048	0.53050
655.71191	0.61821
653.78335	0.66487
651.85479	0.70787
649.92622	0.70750
647.99766	0.55589
646.06909	0.45621
644.14053	0.52439
642.21196	0.64416
640.28340	0.53034
638.35483	0.40698
636.42627	0.41873
634.49771	0.39512
632.56914	0.31390
630.64058	0.31763
628.71201	0.40466
626.78345	0.41792
624.85488	0.42760
622.92632	0.47582
620.99775	0.51525
619.06919	0.50274
617.14062	0.43732
615.21206	0.40235
613.28350	0.46388
611.35493	0.56814
609.42637	0.66956
607.49780	0.71472
605.56924	0.59637
603.64067	0.53166
601.71211	0.58194
599.78354	0.68749
597.85498	0.61218
595.92642	0.53976
593.99785	0.48260
592.06929	0.40436
590.14072	0.41583
588.21216	0.45044
586.28359	0.38970
584.35503	0.38872
582.42646	0.49899
580.49790	0.65757
578.56934	0.56442
576.64077	0.43604
574.71221	0.41634
572.78364	0.46919
570.85508	0.50448
568.92651	0.40851
566.99795	0.27981
565.06938	0.28105
563.14082	0.38356
561.21226	0.37673
559.28369	0.28958
557.35513	0.27536
555.42656	0.34351
553.49800	0.45301
551.56943	0.49687
549.64087	0.53856
547.71230	0.79022
545.78374	3.27470
543.85518	0.83125
541.92661	0.52239
539.99805	0.49353
538.06948	0.45902
536.14092	0.37151
534.21235	0.31946
532.28379	0.31068
530.35522	0.37253
528.42666	0.57452
526.49810	0.84214
524.56953	0.80642
522.64097	0.54690
520.71240	0.32955
518.78384	0.22974
516.85527	0.23184
514.92671	0.31920
512.99814	0.40186
511.06958	0.29688
509.14102	0.23599
507.21245	0.25109
505.28389	0.30120
503.35532	0.32219
501.42676	0.28799
499.49819	0.26128
