3997.91411	0.08941
3995.98555	0.08966
3994.05698	0.09009
3992.12842	0.09066
3990.19985	0.09134
3988.27129	0.09221
3986.34272	0.09274
3984.41416	0.09291
3982.48560	0.09303
3980.55703	0.09307
3978.62847	0.09318
3976.69990	0.09358
3974.77134	0.09421
3972.84277	0.09448
3970.91421	0.09404
3968.98564	0.09352
3967.05708	0.09354
3965.12852	0.09408
3963.19995	0.09488
3961.27139	0.09548
3959.34282	0.09534
3957.41426	0.09481
3955.48569	0.09485
3953.55713	0.09546
3951.62856	0.09626
3949.70000	0.09714
3947.77144	0.09742
3945.84287	0.09673
3943.91431	0.09630
3941.98574	0.09665
3940.05718	0.09672
3938.12861	0.09630
3936.20005	0.09588
3934.27148	0.09587
3932.34292	0.09663
3930.41436	0.09731
3928.48579	0.09690
3926.55723	0.09651
3924.62866	0.09709
3922.70010	0.09761
3920.77153	0.09748
3918.84297	0.09768
3916.91440	0.09798
3914.98584	0.09713
3913.05728	0.09557
3911.12871	0.09457
3909.20015	0.09436
3907.27158	0.09548
3905.34302	0.09847
3903.41445	0.10160
3901.48589	0.10227
3899.55732	0.10104
3897.62876	0.09909
3895.70020	0.09741
3893.77163	0.09739
3891.84307	0.09873
3889.91450	0.09921
3887.98594	0.09853
3886.05737	0.09866
3884.12881	0.09968
3882.20024	0.10053
3880.27168	0.10077
3878.34312	0.09963
3876.41455	0.09846
3874.48599	0.09944
3872.55742	0.10219
3870.62886	0.10435
3868.70029	0.10422
3866.77173	0.10285
3864.84316	0.10328
3862.91460	0.10486
3860.98604	0.10431
3859.05747	0.10293
3857.12891	0.10363
3855.20034	0.10668
3853.27178	0.11098
3851.34321	0.11179
3849.41465	0.10814
3847.48608	0.10530
3845.55752	0.10470
3843.62896	0.10612
3841.70039	0.10892
3839.77183	0.11227
3837.84326	0.11461
3835.91470	0.11409
3833.98613	0.11232
3832.05757	0.11143
3830.12900	0.11140
3828.20044	0.11185
3826.27187	0.11278
3824.34331	0.11412
3822.41475	0.11650
3820.48618	0.12007
3818.55762	0.12156
3816.62905	0.12103
3814.70049	0.12010
3812.77192	0.11847
3810.84336	0.11765
3808.91479	0.11885
3806.98623	0.12200
3805.05767	0.12512
3803.12910	0.12732
3801.20054	0.13014
3799.27197	0.13203
3797.34341	0.13175
3795.41484	0.13095
3793.48628	0.12998
3791.55771	0.12949
3789.62915	0.12986
3787.70059	0.13104
3785.77202	0.13325
3783.84346	0.13570
3781.91489	0.13749
3779.98633	0.13944
3778.05776	0.14133
3776.12920	0.14203
3774.20063	0.14274
3772.27207	0.14482
3770.34351	0.14836
3768.41494	0.15185
3766.48638	0.15357
3764.55781	0.15453
3762.62925	0.15587
3760.70068	0.15859
3758.77212	0.16278
3756.84355	0.16623
3754.91499	0.16862
3752.98643	0.17244
3751.05786	0.17876
3749.12930	0.18430
3747.20073	0.18630
3745.27217	0.18859
3743.34360	0.19224
3741.41504	0.19534
3739.48647	0.19878
3737.55791	0.20439
3735.62935	0.21255
3733.70078	0.22021
3731.77222	0.22384
3729.84365	0.22638
3727.91509	0.23048
3725.98652	0.23660
3724.05796	0.24344
3722.12939	0.24941
3720.20083	0.25463
3718.27227	0.25952
3716.34370	0.26497
3714.41514	0.27229
3712.48657	0.28357
3710.55801	0.29975
3708.62944	0.31462
3706.70088	0.32509
3704.77231	0.33564
3702.84375	0.34926
3700.91519	0.36705
3698.98662	0.38568
3697.05806	0.40313
3695.12949	0.42201
3693.20093	0.44247
3691.27236	0.46544
3689.34380	0.49532
3687.41523	0.52991
3685.48667	0.55865
3683.55811	0.58406
3681.62954	0.61224
3679.70098	0.64482
3677.77241	0.68015
3675.84385	0.72219
3673.91528	0.77712
3671.98672	0.82053
3670.05815	0.85979
3668.12959	0.91390
3666.20103	0.96166
3664.27246	1.00171
3662.34390	1.04601
3660.41533	1.09427
3658.48677	1.14149
3656.55820	1.19163
3654.62964	1.24781
3652.70107	1.29482
3650.77251	1.33634
3648.84395	1.39669
3646.91538	1.47049
3644.98682	1.51963
3643.05825	1.55603
3641.12969	1.59498
3639.20112	1.63937
3637.27256	1.68493
3635.34399	1.72942
3633.41543	1.77359
3631.48687	1.81563
3629.55830	1.85997
3627.62974	1.91744
3625.70117	1.96720
3623.77261	1.99884
3621.84404	2.03015
3619.91548	2.06764
3617.98691	2.11435
3616.05835	2.15939
3614.12979	2.19633
3612.20122	2.23493
3610.27266	2.27428
3608.34409	2.31473
3606.41553	2.35804
3604.48696	2.39776
3602.55840	2.43307
3600.62983	2.47201
3598.70127	2.51491
3596.77271	2.55603
3594.84414	2.59683
3592.91558	2.63817
3590.98701	2.67611
3589.05845	2.71237
3587.12988	2.75827
3585.20132	2.80831
3583.27275	2.84765
3581.34419	2.88384
3579.41562	2.92466
3577.48706	2.96762
3575.55850	3.00922
3573.62993	3.05157
3571.70137	3.09319
3569.77280	3.13277
3567.84424	3.17555
3565.91567	3.23115
3563.98711	3.28587
3562.05854	3.32777
3560.12998	3.36814
3558.20142	3.41103
3556.27285	3.45462
3554.34429	3.49818
3552.41572	3.54533
3550.48716	3.59367
3548.55859	3.63852
3546.63003	3.68456
3544.70146	3.73563
3542.77290	3.78534
3540.84434	3.83070
3538.91577	3.87563
3536.98721	3.92166
3535.05864	3.97140
3533.13008	4.02162
3531.20151	4.06982
3529.27295	4.12001
3527.34438	4.17306
3525.41582	4.22408
3523.48726	4.27207
3521.55869	4.31991
3519.63013	4.36607
3517.70156	4.41163
3515.77300	4.45779
3513.84443	4.50397
3511.91587	4.55203
3509.98730	4.60341
3508.05874	4.65489
3506.13018	4.70385
3504.20161	4.75127
3502.27305	4.79812
3500.34448	4.84482
3498.41592	4.89104
3496.48735	4.94045
3494.55879	4.99501
3492.63022	5.04787
3490.70166	5.09513
3488.77310	5.14326
3486.84453	5.19489
3484.91597	5.24610
3482.98740	5.29898
3481.05884	5.35009
3479.13027	5.39230
3477.20171	5.43630
3475.27314	5.48728
3473.34458	5.53988
3471.41602	5.59449
3469.48745	5.64671
3467.55889	5.69176
3465.63032	5.73228
3463.70176	5.76938
3461.77319	5.80925
3459.84463	5.86593
3457.91606	5.93333
3455.98750	5.99444
3454.05894	6.04456
3452.13037	6.09048
3450.20181	6.13651
3448.27324	6.18715
3446.34468	6.25251
3444.41611	6.31207
3442.48755	6.35446
3440.55898	6.40058
3438.63042	6.45336
3436.70186	6.50024
3434.77329	6.55192
3432.84473	6.62136
3430.91616	6.68480
3428.98760	6.72346
3427.05903	6.76067
3425.13047	6.82780
3423.20190	6.90517
3421.27334	6.96478
3419.34478	6.99932
3417.41621	7.02993
3415.48765	7.07693
3413.55908	7.11123
3411.63052	7.13486
3409.70195	7.16840
3407.77339	7.19978
3405.84482	7.22075
3403.91626	7.26202
3401.98770	7.32909
3400.05913	7.40790
3398.13057	7.48698
3396.20200	7.53337
3394.27344	7.55583
3392.34487	7.58268
3390.41631	7.61524
3388.48774	7.62983
3386.55918	7.63211
3384.63062	7.64329
3382.70205	7.70349
3380.77349	7.79664
3378.84492	7.84488
3376.91636	7.84536
3374.98779	7.82411
3373.05923	7.84384
3371.13066	7.90204
3369.20210	7.92225
3367.27354	7.91850
3365.34497	7.96223
3363.41641	8.00824
3361.48784	8.00737
3359.55928	8.04730
3357.63071	8.13429
3355.70215	8.20240
3353.77358	8.22638
3351.84502	8.22452
3349.91646	8.19742
3347.98789	8.17167
3346.05933	8.15490
3344.13076	8.11943
3342.20220	8.11879
3340.27363	8.18027
3338.34507	8.24463
3336.41650	8.23590
3334.48794	8.20680
3332.55937	8.24380
3330.63081	8.34089
3328.70225	8.39426
3326.77368	8.33989
3324.84512	8.29711
3322.91655	8.37133
3320.98799	8.49716
3319.05942	8.48285
3317.13086	8.36696
3315.20229	8.33945
3313.27373	8.45031
3311.34517	8.55492
3309.41660	8.50264
3307.48804	8.37653
3305.55947	8.28232
3303.63091	8.28347
3301.70234	8.40418
3299.77378	8.52952
3297.84521	8.49305
3295.91665	8.40956
3293.98809	8.38905
3292.05952	8.36066
3290.13096	8.35367
3288.20239	8.44594
3286.27383	8.54229
3284.34526	8.48931
3282.41670	8.36367
3280.48813	8.28338
3278.55957	8.29923
3276.63101	8.35783
3274.70244	8.32879
3272.77388	8.23595
3270.84531	8.19217
3268.91675	8.20344
3266.98818	8.24654
3265.05962	8.33793
3263.13105	8.41366
3261.20249	8.48317
3259.27393	8.56594
3257.34536	8.55908
3255.41680	8.50886
3253.48823	8.49022
3251.55967	8.48457
3249.63110	8.46866
3247.70254	8.42433
3245.77397	8.30371
3243.84541	8.15478
3241.91685	8.13265
3239.98828	8.27953
3238.05972	8.48904
3236.13115	8.65322
3234.20259	8.70166
3232.27402	8.53663
3230.34546	8.31919
3228.41689	8.24552
3226.48833	8.24053
3224.55977	8.22655
3222.63120	8.19378
3220.70264	8.11127
3218.77407	8.08632
3216.84551	8.18860
3214.91694	8.30045
3212.98838	8.32371
3211.05981	8.27825
3209.13125	8.22954
3207.20269	8.21704
3205.27412	8.18547
3203.34556	8.13194
3201.41699	8.07153
3199.48843	7.96879
3197.55986	7.88709
3195.63130	7.85084
3193.70273	7.82899
3191.77417	7.81067
3189.84561	7.76153
3187.91704	7.68133
3185.98848	7.60550
3184.05991	7.54970
3182.13135	7.48093
3180.20278	7.40148
3178.27422	7.34948
3176.34565	7.32363
3174.41709	7.32325
3172.48853	7.31646
3170.55996	7.25747
3168.63140	7.17263
3166.70283	7.08708
3164.77427	6.99459
3162.84570	6.90635
3160.91714	6.84170
3158.98857	6.79224
3157.06001	6.73419
3155.13145	6.67314
3153.20288	6.61678
3151.27432	6.55048
3149.34575	6.46810
3147.41719	6.39259
3145.48862	6.33712
3143.56006	6.27788
3141.63149	6.19990
3139.70293	6.11597
3137.77437	6.03859
3135.84580	5.96817
3133.91724	5.90548
3131.98867	5.83463
3130.06011	5.74211
3128.13154	5.65590
3126.20298	5.58786
3124.27441	5.51882
3122.34585	5.44863
3120.41729	5.38571
3118.48872	5.32063
3116.56016	5.24911
3114.63159	5.17625
3112.70303	5.09977
3110.77446	5.01999
3108.84590	4.94478
3106.91733	4.87519
3104.98877	4.80696
3103.06021	4.74108
3101.13164	4.67490
3099.20308	4.60684
3097.27451	4.54028
3095.34595	4.47211
3093.41738	4.40027
3091.48882	4.32881
3089.56025	4.26121
3087.63169	4.19746
3085.70312	4.13439
3083.77456	4.07014
3081.84600	4.00607
3079.91743	3.94191
3077.98887	3.87748
3076.06030	3.81414
3074.13174	3.75203
3072.20317	3.69201
3070.27461	3.63513
3068.34604	3.57883
3066.41748	3.52032
3064.48892	3.46146
3062.56035	3.40339
3060.63179	3.34567
3058.70322	3.29033
3056.77466	3.23792
3054.84609	3.18562
3052.91753	3.13252
3050.98896	3.08052
3049.06040	3.02962
3047.13184	2.97913
3045.20327	2.92874
3043.27471	2.87822
3041.34614	2.82844
3039.41758	2.77990
3037.48901	2.73230
3035.56045	2.68500
3033.63188	2.63874
3031.70332	2.59435
3029.77476	2.55038
3027.84619	2.50650
3025.91763	2.46329
3023.98906	2.41996
3022.06050	2.37717
3020.13193	2.33609
3018.20337	2.29564
3016.27480	2.25493
3014.34624	2.21473
3012.41768	2.17595
3010.48911	2.13875
3008.56055	2.10208
3006.63198	2.06488
3004.70342	2.02755
3002.77485	1.99078
3000.84629	1.95480
2998.91772	1.91973
2996.98916	1.88587
2995.06060	1.85310
2993.13203	1.82029
2991.20347	1.78715
2989.27490	1.75450
2987.34634	1.72252
2985.41777	1.69110
2983.48921	1.66006
2981.56064	1.62904
2979.63208	1.59831
2977.70352	1.56840
2975.77495	1.53907
2973.84639	1.50976
2971.91782	1.48021
2969.98926	1.45060
2968.06069	1.42144
2966.13213	1.39287
2964.20356	1.36469
2962.27500	1.33707
2960.34644	1.31022
2958.41787	1.28432
2956.48931	1.25952
2954.56074	1.23588
2952.63218	1.21307
2950.70361	1.19065
2948.77505	1.16854
2946.84648	1.14659
2944.91792	1.12429
2942.98936	1.10131
2941.06079	1.07770
2939.13223	1.05397
2937.20366	1.03033
2935.27510	1.00601
2933.34653	0.98096
2931.41797	0.95635
2929.48940	0.93266
2927.56084	0.90963
2925.63228	0.88671
2923.70371	0.86389
2921.77515	0.84251
2919.84658	0.82427
2917.91802	0.80946
2915.98945	0.79803
2914.06089	0.79044
2912.13232	0.78523
2910.20376	0.77950
2908.27520	0.77202
2906.34663	0.76336
2904.41807	0.75383
2902.48950	0.74347
2900.56094	0.73266
2898.63237	0.72178
2896.70381	0.71106
2894.77524	0.70024
2892.84668	0.68926
2890.91812	0.67868
2888.98955	0.66857
2887.06099	0.65841
2885.13242	0.64805
2883.20386	0.63757
2881.27529	0.62698
2879.34673	0.61645
2877.41816	0.60598
2875.48960	0.59532
2873.56104	0.58455
2871.63247	0.57376
2869.70391	0.56286
2867.77534	0.55210
2865.84678	0.54161
2863.91821	0.53100
2861.98965	0.51964
2860.06108	0.50718
2858.13252	0.49388
2856.20396	0.48016
2854.27539	0.46659
2852.34683	0.45385
2850.41826	0.44333
2848.48970	0.43745
2846.56113	0.43708
2844.63257	0.43943
2842.70400	0.44105
2840.77544	0.44052
2838.84687	0.43814
2836.91831	0.43464
2834.98975	0.43035
2833.06118	0.42552
2831.13262	0.42065
2829.20405	0.41578
2827.27549	0.41059
2825.34692	0.40506
2823.41836	0.39949
2821.48979	0.39394
2819.56123	0.38837
2817.63267	0.38283
2815.70410	0.37743
2813.77554	0.37225
2811.84697	0.36726
2809.91841	0.36238
2807.98984	0.35763
2806.06128	0.35288
2804.13271	0.34804
2802.20415	0.34332
2800.27559	0.33879
2798.34702	0.33427
2796.41846	0.32966
2794.48989	0.32512
2792.56133	0.32085
2790.63276	0.31673
2788.70420	0.31268
2786.77563	0.30873
2784.84707	0.30494
2782.91851	0.30123
2780.98994	0.29751
2779.06138	0.29381
2777.13281	0.29017
2775.20425	0.28652
2773.27568	0.28282
2771.34712	0.27930
2769.41855	0.27604
2767.48999	0.27280
2765.56143	0.26959
2763.63286	0.26657
2761.70430	0.26363
2759.77573	0.26066
2757.84717	0.25768
2755.91860	0.25481
2753.99004	0.25209
2752.06147	0.24939
2750.13291	0.24652
2748.20435	0.24364
2746.27578	0.24105
2744.34722	0.23865
2742.41865	0.23614
2740.49009	0.23354
2738.56152	0.23115
2736.63296	0.22895
2734.70439	0.22675
2732.77583	0.22448
2730.84727	0.22219
2728.91870	0.22002
2726.99014	0.21806
2725.06157	0.21618
2723.13301	0.21426
2721.20444	0.21238
2719.27588	0.21059
2717.34731	0.20878
2715.41875	0.20686
2713.49019	0.20499
2711.56162	0.20333
2709.63306	0.20174
2707.70449	0.20016
2705.77593	0.19868
2703.84736	0.19720
2701.91880	0.19574
2699.99023	0.19431
2698.06167	0.19287
2696.13311	0.19155
2694.20454	0.19032
2692.27598	0.18897
2690.34741	0.18758
2688.41885	0.18644
2686.49028	0.18543
2684.56172	0.18422
2682.63315	0.18291
2680.70459	0.18188
2678.77603	0.18096
2676.84746	0.17990
2674.91890	0.17881
2672.99033	0.17778
2671.06177	0.17680
2669.13320	0.17590
2667.20464	0.17516
2665.27607	0.17443
2663.34751	0.17358
2661.41895	0.17279
2659.49038	0.17212
2657.56182	0.17150
2655.63325	0.17082
2653.70469	0.17002
2651.77612	0.16925
2649.84756	0.16875
2647.91899	0.16849
2645.99043	0.16816
2644.06187	0.16767
2642.13330	0.16714
2640.20474	0.16679
2638.27617	0.16653
2636.34761	0.16613
2634.41904	0.16573
2632.49048	0.16548
2630.56191	0.16525
2628.63335	0.16492
2626.70479	0.16459
2624.77622	0.16432
2622.84766	0.16411
2620.91909	0.16395
2618.99053	0.16395
2617.06196	0.16395
2615.13340	0.16381
2613.20483	0.16365
2611.27627	0.16357
2609.34771	0.16359
2607.41914	0.16373
2605.49058	0.16390
2603.56201	0.16406
2601.63345	0.16424
2599.70488	0.16432
2597.77632	0.16429
2595.84775	0.16433
2593.91919	0.16450
2591.99062	0.16474
2590.06206	0.16500
2588.13350	0.16529
2586.20493	0.16564
2584.27637	0.16596
2582.34780	0.16612
2580.41924	0.16635
2578.49067	0.16686
2576.56211	0.16747
2574.63354	0.16800
2572.70498	0.16845
2570.77642	0.16876
2568.84785	0.16908
2566.91929	0.16968
2564.99072	0.17041
2563.06216	0.17094
2561.13359	0.17125
2559.20503	0.17164
2557.27646	0.17225
2555.34790	0.17301
2553.41934	0.17376
2551.49077	0.17441
2549.56221	0.17500
2547.63364	0.17556
2545.70508	0.17621
2543.77651	0.17689
2541.84795	0.17752
2539.91938	0.17812
2537.99082	0.17869
2536.06226	0.17933
2534.13369	0.18012
2532.20513	0.18116
2530.27656	0.18229
2528.34800	0.18316
2526.41943	0.18378
2524.49087	0.18450
2522.56230	0.18540
2520.63374	0.18631
2518.70518	0.18711
2516.77661	0.18779
2514.84805	0.18844
2512.91948	0.18920
2510.99092	0.19008
2509.06235	0.19109
2507.13379	0.19216
2505.20522	0.19313
2503.27666	0.19398
2501.34810	0.19480
2499.41953	0.19558
2497.49097	0.19638
2495.56240	0.19728
2493.63384	0.19828
2491.70527	0.19922
2489.77671	0.20013
2487.84814	0.20120
2485.91958	0.20237
2483.99102	0.20339
2482.06245	0.20423
2480.13389	0.20503
2478.20532	0.20587
2476.27676	0.20674
2474.34819	0.20773
2472.41963	0.20890
2470.49106	0.21005
2468.56250	0.21102
2466.63394	0.21196
2464.70537	0.21303
2462.77681	0.21408
2460.84824	0.21509
2458.91968	0.21617
2456.99111	0.21729
2455.06255	0.21832
2453.13398	0.21928
2451.20542	0.22025
2449.27686	0.22125
2447.34829	0.22228
2445.41973	0.22336
2443.49116	0.22453
2441.56260	0.22568
2439.63403	0.22674
2437.70547	0.22781
2435.77690	0.22907
2433.84834	0.23027
2431.91978	0.23122
2429.99121	0.23218
2428.06265	0.23325
2426.13408	0.23437
2424.20552	0.23553
2422.27695	0.23675
2420.34839	0.23794
2418.41982	0.23903
2416.49126	0.24008
2414.56270	0.24131
2412.63413	0.24262
2410.70557	0.24377
2408.77700	0.24493
2406.84844	0.24629
2404.91987	0.24763
2402.99131	0.24881
2401.06274	0.25005
2399.13418	0.25137
2397.20562	0.25273
2395.27705	0.25404
2393.34849	0.25523
2391.41992	0.25654
2389.49136	0.25818
2387.56279	0.26025
2385.63423	0.26308
2383.70566	0.26714
2381.77710	0.27266
2379.84854	0.27940
2377.91997	0.28690
2375.99141	0.29506
2374.06284	0.30438
2372.13428	0.31507
2370.20571	0.32682
2368.27715	0.33905
2366.34858	0.35054
2364.42002	0.36016
2362.49146	0.36782
2360.56289	0.37325
2358.63433	0.37517
2356.70576	0.37263
2354.77720	0.36553
2352.84863	0.35520
2350.92007	0.34438
2348.99150	0.33768
2347.06294	0.33819
2345.13437	0.34664
2343.20581	0.35848
2341.27725	0.36537
2339.34868	0.36654
2337.42012	0.36559
2335.49155	0.36492
2333.56299	0.36501
2331.63442	0.36548
2329.70586	0.36549
2327.77729	0.36460
2325.84873	0.36316
2323.92017	0.36133
2321.99160	0.35877
2320.06304	0.35551
2318.13447	0.35219
2316.20591	0.34951
2314.27734	0.34805
2312.34878	0.34782
2310.42021	0.34789
2308.49165	0.34712
2306.56309	0.34549
2304.63452	0.34416
2302.70596	0.34392
2300.77739	0.34429
2298.84883	0.34464
2296.92026	0.34517
2294.99170	0.34604
2293.06313	0.34693
2291.13457	0.34761
2289.20601	0.34822
2287.27744	0.34895
2285.34888	0.34989
2283.42031	0.35115
2281.49175	0.35284
2279.56318	0.35502
2277.63462	0.35746
2275.70605	0.35996
2273.77749	0.36228
2271.84893	0.36439
2269.92036	0.36652
2267.99180	0.36864
2266.06323	0.37068
2264.13467	0.37265
2262.20610	0.37461
2260.27754	0.37654
2258.34897	0.37836
2256.42041	0.38018
2254.49185	0.38226
2252.56328	0.38450
2250.63472	0.38664
2248.70615	0.38872
2246.77759	0.39080
2244.84902	0.39290
2242.92046	0.39506
2240.99189	0.39733
2239.06333	0.39955
2237.13477	0.40161
2235.20620	0.40373
2233.27764	0.40607
2231.34907	0.40841
2229.42051	0.41057
2227.49194	0.41268
2225.56338	0.41494
2223.63481	0.41728
2221.70625	0.41942
2219.77769	0.42148
2217.84912	0.42373
2215.92056	0.42606
2213.99199	0.42831
2212.06343	0.43050
2210.13486	0.43273
2208.20630	0.43488
2206.27773	0.43689
2204.34917	0.43894
2202.42061	0.44106
2200.49204	0.44316
2198.56348	0.44522
2196.63491	0.44715
2194.70635	0.44899
2192.77778	0.45086
2190.84922	0.45281
2188.92065	0.45474
2186.99209	0.45659
2185.06353	0.45840
2183.13496	0.46023
2181.20640	0.46204
2179.27783	0.46377
2177.34927	0.46535
2175.42070	0.46676
2173.49214	0.46812
2171.56357	0.46956
2169.63501	0.47113
2167.70645	0.47270
2165.77788	0.47408
2163.84932	0.47527
2161.92075	0.47633
2159.99219	0.47739
2158.06362	0.47851
2156.13506	0.47961
2154.20649	0.48055
2152.27793	0.48133
2150.34937	0.48200
2148.42080	0.48263
2146.49224	0.48317
2144.56367	0.48357
2142.63511	0.48400
2140.70654	0.48445
2138.77798	0.48475
2136.84941	0.48490
2134.92085	0.48501
2132.99229	0.48509
2131.06372	0.48501
2129.13516	0.48478
2127.20659	0.48459
2125.27803	0.48435
2123.34946	0.48389
2121.42090	0.48340
2119.49233	0.48295
2117.56377	0.48240
2115.63521	0.48169
2113.70664	0.48092
2111.77808	0.48011
2109.84951	0.47916
2107.92095	0.47806
2105.99238	0.47694
2104.06382	0.47578
2102.13525	0.47450
2100.20669	0.47322
2098.27812	0.47189
2096.34956	0.47039
2094.42100	0.46872
2092.49243	0.46705
2090.56387	0.46543
2088.63530	0.46371
2086.70674	0.46189
2084.77817	0.45999
2082.84961	0.45809
2080.92104	0.45616
2078.99248	0.45419
2077.06392	0.45216
2075.13535	0.45004
2073.20679	0.44781
2071.27822	0.44545
2069.34966	0.44304
2067.42109	0.44070
2065.49253	0.43838
2063.56396	0.43598
2061.63540	0.43356
2059.70684	0.43109
2057.77827	0.42843
2055.84971	0.42565
2053.92114	0.42292
2051.99258	0.42035
2050.06401	0.41785
2048.13545	0.41525
2046.20688	0.41258
2044.27832	0.40993
2042.34976	0.40729
2040.42119	0.40454
2038.49263	0.40167
2036.56406	0.39873
2034.63550	0.39579
2032.70693	0.39293
2030.77837	0.39018
2028.84980	0.38749
2026.92124	0.38478
2024.99268	0.38198
2023.06411	0.37913
2021.13555	0.37633
2019.20698	0.37375
2017.27842	0.37116
2015.34985	0.36810
2013.42129	0.36480
2011.49272	0.36179
2009.56416	0.35911
2007.63560	0.35649
2005.70703	0.35379
2003.77847	0.35104
2001.84990	0.34829
1999.92134	0.34559
1997.99277	0.34295
1996.06421	0.34039
1994.13564	0.33795
1992.20708	0.33552
1990.27852	0.33282
1988.34995	0.33006
1986.42139	0.32743
1984.49282	0.32488
1982.56426	0.32244
1980.63569	0.32006
1978.70713	0.31765
1976.77856	0.31516
1974.85000	0.31272
1972.92144	0.31042
1970.99287	0.30836
1969.06431	0.30659
1967.13574	0.30479
1965.20718	0.30253
1963.27861	0.30012
1961.35005	0.29792
1959.42148	0.29588
1957.49292	0.29407
1955.56436	0.29242
1953.63579	0.29065
1951.70723	0.28876
1949.77866	0.28699
1947.85010	0.28541
1945.92153	0.28406
1943.99297	0.28285
1942.06440	0.28138
1940.13584	0.27947
1938.20728	0.27760
1936.27871	0.27602
1934.35015	0.27462
1932.42158	0.27334
1930.49302	0.27214
1928.56445	0.27101
1926.63589	0.26995
1924.70732	0.26918
1922.77876	0.26850
1920.85020	0.26744
1918.92163	0.26638
1916.99307	0.26543
1915.06450	0.26421
1913.13594	0.26301
1911.20737	0.26228
1909.27881	0.26176
1907.35024	0.26105
1905.42168	0.26021
1903.49312	0.25943
1901.56455	0.25866
1899.63599	0.25799
1897.70742	0.25762
1895.77886	0.25744
1893.85029	0.25714
1891.92173	0.25677
1889.99316	0.25667
1888.06460	0.25635
1886.13604	0.25570
1884.20747	0.25526
1882.27891	0.25501
1880.35034	0.25485
1878.42178	0.25472
1876.49321	0.25460
1874.56465	0.25455
1872.63608	0.25482
1870.70752	0.25556
1868.77896	0.25667
1866.85039	0.25701
1864.92183	0.25638
1862.99326	0.25588
1861.06470	0.25585
1859.13613	0.25617
1857.20757	0.25650
1855.27900	0.25680
1853.35044	0.25716
1851.42187	0.25774
1849.49331	0.25856
1847.56475	0.25968
1845.63618	0.26105
1843.70762	0.26222
1841.77905	0.26245
1839.85049	0.26237
1837.92192	0.26296
1835.99336	0.26388
1834.06479	0.26478
1832.13623	0.26604
1830.20767	0.26806
1828.27910	0.26979
1826.35054	0.27067
1824.42197	0.27164
1822.49341	0.27244
1820.56484	0.27323
1818.63628	0.27444
1816.70771	0.27605
1814.77915	0.27777
1812.85059	0.27976
1810.92202	0.28209
1808.99346	0.28420
1807.06489	0.28596
1805.13633	0.28774
1803.20776	0.29012
1801.27920	0.29308
1799.35063	0.29612
1797.42207	0.29857
1795.49351	0.30103
1793.56494	0.30420
1791.63638	0.30803
1789.70781	0.31095
1787.77925	0.31300
1785.85068	0.31598
1783.92212	0.31977
1781.99355	0.32392
1780.06499	0.32835
1778.13643	0.33270
1776.20786	0.33680
1774.27930	0.34156
1772.35073	0.34817
1770.42217	0.35465
1768.49360	0.35923
1766.56504	0.36355
1764.63647	0.36833
1762.70791	0.37406
1760.77935	0.38136
1758.85078	0.38785
1756.92222	0.39420
1754.99365	0.40109
1753.06509	0.40741
1751.13652	0.41549
1749.20796	0.42602
1747.27939	0.43596
1745.35083	0.44438
1743.42227	0.45373
1741.49370	0.46455
1739.56514	0.47759
1737.63657	0.49076
1735.70801	0.50257
1733.77944	0.52074
1731.85088	0.54170
1729.92231	0.55722
1727.99375	0.57302
1726.06519	0.59019
1724.13662	0.60913
1722.20806	0.62969
1720.27949	0.64884
1718.35093	0.67174
1716.42236	0.70571
1714.49380	0.73659
1712.56523	0.76049
1710.63667	0.78388
1708.70811	0.80949
1706.77954	0.83908
1704.85098	0.87476
1702.92241	0.90603
1700.99385	0.93609
1699.06528	0.98169
1697.13672	1.02343
1695.20815	1.06504
1693.27959	1.10456
1691.35103	1.13594
1689.42246	1.17255
1687.49390	1.21109
1685.56533	1.24759
1683.63677	1.30517
1681.70820	1.36518
1679.77964	1.40196
1677.85107	1.43673
1675.92251	1.47701
1673.99395	1.52754
1672.06538	1.57207
1670.13682	1.61499
1668.20825	1.67049
1666.27969	1.71434
1664.35112	1.75140
1662.42256	1.79649
1660.49399	1.84484
1658.56543	1.88113
1656.63687	1.91112
1654.70830	1.94009
1652.77974	1.99393
1650.85117	2.05140
1648.92261	2.07464
1646.99404	2.10541
1645.06548	2.13996
1643.13691	2.16212
1641.20835	2.17615
1639.27979	2.18938
1637.35122	2.19922
1635.42266	2.20265
1633.49409	2.19759
1631.56553	2.18685
1629.63696	2.17348
1627.70840	2.14986
1625.77983	2.12311
1623.85127	2.08936
1621.92271	2.04566
1619.99414	2.00598
1618.06558	1.96680
1616.13701	1.90828
1614.20845	1.84807
1612.27988	1.80325
1610.35132	1.75620
1608.42275	1.70424
1606.49419	1.65187
1604.56562	1.60327
1602.63706	1.55601
1600.70850	1.50884
1598.77993	1.46526
1596.85137	1.42477
1594.92280	1.38520
1592.99424	1.34615
1591.06567	1.30985
1589.13711	1.27560
1587.20854	1.24349
1585.27998	1.21346
1583.35142	1.18486
1581.42285	1.15833
1579.49429	1.13568
1577.56572	1.11523
1575.63716	1.08824
1573.70859	1.06294
1571.78003	1.04664
1569.85146	1.02933
1567.92290	1.00852
1565.99434	0.99158
1564.06577	0.97731
1562.13721	0.96580
1560.20864	0.95691
1558.28008	0.93894
1556.35151	0.91945
1554.42295	0.90754
1552.49438	0.89631
1550.56582	0.88555
1548.63726	0.87498
1546.70869	0.86630
1544.78013	0.85917
1542.85156	0.85225
1540.92300	0.84405
1538.99443	0.83039
1537.06587	0.82001
1535.13730	0.81402
1533.20874	0.80675
1531.28018	0.79835
1529.35161	0.79237
1527.42305	0.78747
1525.49448	0.78231
1523.56592	0.77741
1521.63735	0.77209
1519.70879	0.76535
1517.78022	0.75939
1515.85166	0.75330
1513.92310	0.74737
1511.99453	0.74312
1510.06597	0.74023
1508.13740	0.73805
1506.20884	0.73226
1504.28027	0.72491
1502.35171	0.72065
1500.42314	0.71757
1498.49458	0.71465
1496.56602	0.71080
1494.63745	0.70623
1492.70889	0.70292
1490.78032	0.70098
1488.85176	0.69836
1486.92319	0.69397
1484.99463	0.68960
1483.06606	0.68620
1481.13750	0.68331
1479.20894	0.68038
1477.28037	0.67762
1475.35181	0.67526
1473.42324	0.67241
1471.49468	0.66700
1469.56611	0.66134
1467.63755	0.65761
1465.70898	0.65502
1463.78042	0.65276
1461.85186	0.65106
1459.92329	0.65056
1457.99473	0.65082
1456.06616	0.64890
1454.13760	0.64498
1452.20903	0.64220
1450.28047	0.64034
1448.35190	0.63883
1446.42334	0.63711
1444.49478	0.63536
1442.56621	0.63389
1440.63765	0.63259
1438.70908	0.63160
1436.78052	0.63064
1434.85195	0.62900
1432.92339	0.62736
1430.99482	0.62625
1429.06626	0.62488
1427.13770	0.62313
1425.20913	0.62180
1423.28057	0.62078
1421.35200	0.61969
1419.42344	0.61856
1417.49487	0.61681
1415.56631	0.61453
1413.63774	0.61266
1411.70918	0.61120
1409.78062	0.60968
1407.85205	0.60822
1405.92349	0.60719
1403.99492	0.60618
1402.06636	0.60497
1400.13779	0.60403
1398.20923	0.60304
1396.28066	0.60169
1394.35210	0.60009
1392.42354	0.59827
1390.49497	0.59671
1388.56641	0.59566
1386.63784	0.59448
1384.70928	0.59263
1382.78071	0.59087
1380.85215	0.58954
1378.92358	0.58854
1376.99502	0.58784
1375.06646	0.58735
1373.13789	0.58646
1371.20933	0.58513
1369.28076	0.58399
1367.35220	0.58297
1365.42363	0.58210
1363.49507	0.58167
1361.56650	0.58118
1359.63794	0.58004
1357.70937	0.57879
1355.78081	0.57769
1353.85225	0.57665
1351.92368	0.57567
1349.99512	0.57481
1348.06655	0.57392
1346.13799	0.57293
1344.20942	0.57207
1342.28086	0.57158
1340.35229	0.57138
1338.42373	0.57077
1336.49517	0.56942
1334.56660	0.56799
1332.63804	0.56691
1330.70947	0.56605
1328.78091	0.56522
1326.85234	0.56430
1324.92378	0.56332
1322.99521	0.56247
1321.06665	0.56187
1319.13809	0.56131
1317.20952	0.56056
1315.28096	0.55969
1313.35239	0.55878
1311.42383	0.55774
1309.49526	0.55677
1307.56670	0.55595
1305.63813	0.55511
1303.70957	0.55425
1301.78101	0.55356
1299.85244	0.55299
1297.92388	0.55229
1295.99531	0.55136
1294.06675	0.55031
1292.13818	0.54941
1290.20962	0.54875
1288.28105	0.54820
1286.35249	0.54763
1284.42393	0.54707
1282.49536	0.54654
1280.56680	0.54605
1278.63823	0.54561
1276.70967	0.54522
1274.78110	0.54478
1272.85254	0.54423
1270.92397	0.54357
1268.99541	0.54293
1267.06685	0.54238
1265.13828	0.54189
1263.20972	0.54138
1261.28115	0.54096
1259.35259	0.54058
1257.42402	0.54017
1255.49546	0.53997
1253.56689	0.54004
1251.63833	0.54009
1249.70977	0.54005
1247.78120	0.53998
1245.85264	0.53985
1243.92407	0.53961
1241.99551	0.53924
1240.06694	0.53863
1238.13838	0.53788
1236.20981	0.53717
1234.28125	0.53652
1232.35269	0.53592
1230.42412	0.53537
1228.49556	0.53474
1226.56699	0.53403
1224.63843	0.53335
1222.70986	0.53269
1220.78130	0.53210
1218.85273	0.53148
1216.92417	0.53071
1214.99561	0.52987
1213.06704	0.52906
1211.13848	0.52834
1209.20991	0.52775
1207.28135	0.52716
1205.35278	0.52643
1203.42422	0.52573
1201.49565	0.52518
1199.56709	0.52461
1197.63853	0.52395
1195.70996	0.52332
1193.78140	0.52271
1191.85283	0.52213
1189.92427	0.52163
1187.99570	0.52112
1186.06714	0.52059
1184.13857	0.52022
1182.21001	0.52010
1180.28145	0.52016
1178.35288	0.52035
1176.42432	0.52056
1174.49575	0.52077
1172.56719	0.52102
1170.63862	0.52132
1168.71006	0.52173
1166.78149	0.52223
1164.85293	0.52260
1162.92437	0.52273
1160.99580	0.52264
1159.06724	0.52241
1157.13867	0.52209
1155.21011	0.52158
1153.28154	0.52067
1151.35298	0.51911
1149.42441	0.51700
1147.49585	0.51470
1145.56729	0.51247
1143.63872	0.51027
1141.71016	0.50792
1139.78159	0.50563
1137.85303	0.50360
1135.92446	0.50169
1133.99590	0.49976
1132.06733	0.49789
1130.13877	0.49610
1128.21021	0.49449
1126.28164	0.49314
1124.35308	0.49200
1122.42451	0.49100
1120.49595	0.49006
1118.56738	0.48931
1116.63882	0.48901
1114.71025	0.48921
1112.78169	0.48963
1110.85312	0.49019
1108.92456	0.49089
1106.99600	0.49165
1105.06743	0.49259
1103.13887	0.49396
1101.21030	0.49584
1099.28174	0.49817
1097.35317	0.50095
1095.42461	0.50412
1093.49604	0.50763
1091.56748	0.51172
1089.63892	0.51656
1087.71035	0.52198
1085.78179	0.52792
1083.85322	0.53432
1081.92466	0.54076
1079.99609	0.54650
1078.06753	0.55046
1076.13896	0.55176
1074.21040	0.55037
1072.28184	0.54666
1070.35327	0.54118
1068.42471	0.53472
1066.49614	0.52808
1064.56758	0.52192
1062.63901	0.51657
1060.71045	0.51170
1058.78188	0.50706
1056.85332	0.50307
1054.92476	0.49978
1052.99619	0.49684
1051.06763	0.49432
1049.13906	0.49224
1047.21050	0.49028
1045.28193	0.48852
1043.35337	0.48729
1041.42480	0.48650
1039.49624	0.48595
1037.56768	0.48546
1035.63911	0.48495
1033.71055	0.48472
1031.78198	0.48484
1029.85342	0.48513
1027.92485	0.48549
1025.99629	0.48588
1024.06772	0.48637
1022.13916	0.48694
1020.21060	0.48754
1018.28203	0.48826
1016.35347	0.48924
1014.42490	0.49050
1012.49634	0.49192
1010.56777	0.49337
1008.63921	0.49507
1006.71064	0.49710
1004.78208	0.49921
1002.85352	0.50140
1000.92495	0.50406
998.99639	0.50722
997.06782	0.51060
995.13926	0.51417
993.21069	0.51797
991.28213	0.52164
989.35356	0.52442
987.42500	0.52592
985.49644	0.52673
983.56787	0.52761
981.63931	0.52888
979.71074	0.53058
977.78218	0.53262
975.85361	0.53499
973.92505	0.53778
971.99648	0.54096
970.06792	0.54443
968.13936	0.54823
966.21079	0.55252
964.28223	0.55711
962.35366	0.56187
960.42510	0.56700
958.49653	0.57249
956.56797	0.57815
954.63940	0.58388
952.71084	0.58986
950.78228	0.59631
948.85371	0.60287
946.92515	0.60905
944.99658	0.61490
943.06802	0.62075
941.13945	0.62672
939.21089	0.63292
937.28232	0.63905
935.35376	0.64452
933.42520	0.64963
931.49663	0.65512
929.56807	0.66110
927.63950	0.66745
925.71094	0.67407
923.78237	0.68040
921.85381	0.68640
919.92524	0.69258
917.99668	0.69894
916.06812	0.70585
914.13955	0.71334
912.21099	0.72073
910.28242	0.72821
908.35386	0.73654
906.42529	0.74612
904.49673	0.75624
902.56816	0.76528
900.63960	0.77310
898.71104	0.78139
896.78247	0.79120
894.85391	0.80161
892.92534	0.81158
890.99678	0.82131
889.06821	0.83130
887.13965	0.84165
885.21108	0.85236
883.28252	0.86398
881.35396	0.87613
879.42539	0.88728
877.49683	0.89764
875.56826	0.90872
873.63970	0.92051
871.71113	0.93138
869.78257	0.94185
867.85400	0.95442
865.92544	0.96861
863.99687	0.98119
862.06831	0.99113
860.13975	1.00145
858.21118	1.01326
856.28262	1.02483
854.35405	1.03708
852.42549	1.05000
850.49692	1.06276
848.56836	1.07495
846.63979	1.08438
844.71123	1.09221
842.78267	1.10239
840.85410	1.11673
838.92554	1.13204
836.99697	1.14283
835.06841	1.14940
833.13984	1.15708
831.21128	1.16776
829.28271	1.17955
827.35415	1.19198
825.42559	1.20507
823.49702	1.21955
821.56846	1.23248
819.63989	1.23540
817.71133	1.23339
815.78276	1.24215
813.85420	1.26073
811.92563	1.28309
809.99707	1.31476
808.06851	1.34034
806.13994	1.33992
804.21138	1.33420
802.28281	1.34410
800.35425	1.36695
798.42568	1.39100
796.49712	1.40172
794.56855	1.39762
792.63999	1.39311
790.71143	1.38376
788.78286	1.36529
786.85430	1.36314
784.92573	1.39299
782.99717	1.44290
781.06860	1.50159
779.14004	1.55654
777.21147	1.55001
775.28291	1.50904
773.35435	1.54201
771.42578	1.62973
769.49722	1.63623
767.56865	1.58749
765.64009	1.55888
763.71152	1.45504
761.78296	1.35921
759.85439	1.43092
757.92583	1.62581
755.99727	1.52804
754.06870	1.39917
752.14014	1.37301
750.21157	1.24192
748.28301	1.13489
746.35444	1.14453
744.42588	1.14398
742.49731	1.12445
740.56875	1.15330
738.64019	1.15205
736.71162	0.98971
734.78306	0.86446
732.85449	0.83525
730.92593	0.69187
728.99736	0.51608
727.06880	0.42080
725.14023	0.35156
723.21167	0.34318
721.28311	0.54503
719.35454	0.87524
717.42598	-0.15809
715.49741	-0.33015
713.56885	-0.25371
711.64028	-0.27972
709.71172	-0.50604
707.78315	-0.37896
705.85459	-0.01483
703.92603	0.25799
701.99746	0.27624
700.06890	0.23310
698.14033	0.23657
696.21177	0.31133
694.28320	0.44306
692.35464	0.52595
690.42607	0.48280
688.49751	0.44529
686.56895	0.45881
684.64038	0.43177
682.71182	0.45082
680.78325	0.71319
678.85469	4.07313
676.92612	4.06156
674.99756	0.87238
673.06899	0.57905
671.14043	0.47985
669.21187	0.51214
667.28330	0.54328
665.35474	0.48743
663.42617	0.46752
661.49761	0.47557
659.56904	0.47723
657.64048	0.46283
655.71191	0.41066
653.78335	0.44069
651.85479	0.63731
649.92622	0.81664
647.99766	0.72512
646.06909	0.66977
644.14053	0.58669
642.21196	0.51665
640.28340	0.50123
638.35483	0.40571
636.42627	0.34418
634.49771	0.38727
632.56914	0.40236
630.64058	0.36256
628.71201	0.35716
626.78345	0.37184
624.85488	0.41488
622.92632	0.63114
620.99775	1.06469
619.06919	0.64700
617.14062	0.46990
615.21206	0.39600
613.28350	0.33925
611.35493	0.32075
609.42637	0.30898
607.49780	0.32571
605.56924	0.43769
603.64067	0.58326
601.71211	0.51552
599.78354	0.30293
597.85498	0.20639
595.92642	0.28218
593.99785	0.43018
592.06929	0.40728
590.14072	0.32790
588.21216	0.32452
586.28359	0.34539
584.35503	0.37074
582.42646	0.47360
580.49790	0.65362
578.56934	0.55962
576.64077	0.40042
574.71221	0.36411
572.78364	0.36892
570.85508	0.33571
568.92651	0.33084
566.99795	0.42117
565.06938	0.61101
563.14082	0.56539
561.21226	0.36295
559.28369	0.26400
557.35513	0.29208
555.42656	0.40960
553.49800	0.56732
551.56943	0.52850
549.64087	0.34292
547.71230	0.27721
545.78374	0.32444
543.85518	0.36367
541.92661	0.37206
539.99805	0.41411
538.06948	0.53351
536.14092	0.63935
534.21235	0.47301
532.28379	0.36359
530.35522	0.34972
528.42666	0.33699
526.49810	0.27657
524.56953	0.24425
522.64097	0.27586
520.71240	0.37987
518.78384	0.65373
516.85527	3.10113
514.92671	3.08956
512.99814	0.56258
511.06958	0.53852
509.14102	0.52586
507.21245	0.45112
505.28389	0.40902
503.35532	0.33578
501.42676	0.26883
499.49819	0.24232
