3997.91411	0.06308
3995.98555	0.06344
3994.05698	0.06374
3992.12842	0.06400
3990.19985	0.06443
3988.27129	0.06509
3986.34272	0.06545
3984.41416	0.06558
3982.48560	0.06583
3980.55703	0.06611
3978.62847	0.06632
3976.69990	0.06636
3974.77134	0.06610
3972.84277	0.06574
3970.91421	0.06545
3968.98564	0.06525
3967.05708	0.06541
3965.12852	0.06584
3963.19995	0.06610
3961.27139	0.06611
3959.34282	0.06601
3957.41426	0.06591
3955.48569	0.06616
3953.55713	0.06684
3951.62856	0.06746
3949.70000	0.06783
3947.77144	0.06783
3945.84287	0.06724
3943.91431	0.06658
3941.98574	0.06664
3940.05718	0.06711
3938.12861	0.06734
3936.20005	0.06713
3934.27148	0.06677
3932.34292	0.06681
3930.41436	0.06719
3928.48579	0.06724
3926.55723	0.06707
3924.62866	0.06713
3922.70010	0.06726
3920.77153	0.06729
3918.84297	0.06726
3916.91440	0.06715
3914.98584	0.06690
3913.05728	0.06657
3911.12871	0.06622
3909.20015	0.06589
3907.27158	0.06603
3905.34302	0.06687
3903.41445	0.06769
3901.48589	0.06754
3899.55732	0.06667
3897.62876	0.06597
3895.70020	0.06579
3893.77163	0.06609
3891.84307	0.06678
3889.91450	0.06738
3887.98594	0.06720
3886.05737	0.06678
3884.12881	0.06689
3882.20024	0.06723
3880.27168	0.06743
3878.34312	0.06739
3876.41455	0.06694
3874.48599	0.06697
3872.55742	0.06808
3870.62886	0.06925
3868.70029	0.06947
3866.77173	0.06913
3864.84316	0.06946
3862.91460	0.07050
3860.98604	0.07087
3859.05747	0.07039
3857.12891	0.07004
3855.20034	0.07055
3853.27178	0.07255
3851.34321	0.07454
3849.41465	0.07393
3847.48608	0.07254
3845.55752	0.07167
3843.62896	0.07170
3841.70039	0.07250
3839.77183	0.07393
3837.84326	0.07571
3835.91470	0.07672
3833.98613	0.07687
3832.05757	0.07686
3830.12900	0.07688
3828.20044	0.07716
3826.27187	0.07788
3824.34331	0.07862
3822.41475	0.07939
3820.48618	0.08114
3818.55762	0.08291
3816.62905	0.08355
3814.70049	0.08408
3812.77192	0.08443
3810.84336	0.08447
3808.91479	0.08510
3806.98623	0.08698
3805.05767	0.08887
3803.12910	0.08927
3801.20054	0.08955
3799.27197	0.09072
3797.34341	0.09198
3795.41484	0.09313
3793.48628	0.09400
3791.55771	0.09475
3789.62915	0.09558
3787.70059	0.09640
3785.77202	0.09766
3783.84346	0.09940
3781.91489	0.10100
3779.98633	0.10247
3778.05776	0.10387
3776.12920	0.10486
3774.20063	0.10587
3772.27207	0.10752
3770.34351	0.10992
3768.41494	0.11241
3766.48638	0.11402
3764.55781	0.11536
3762.62925	0.11694
3760.70068	0.11889
3758.77212	0.12154
3756.84355	0.12416
3754.91499	0.12613
3752.98643	0.12842
3751.05786	0.13193
3749.12930	0.13552
3747.20073	0.13719
3745.27217	0.13901
3743.34360	0.14303
3741.41504	0.14692
3739.48647	0.14917
3737.55791	0.15175
3735.62935	0.15612
3733.70078	0.16158
3731.77222	0.16572
3729.84365	0.16885
3727.91509	0.17227
3725.98652	0.17715
3724.05796	0.18345
3722.12939	0.18995
3720.20083	0.19656
3718.27227	0.20329
3716.34370	0.21003
3714.41514	0.21689
3712.48657	0.22531
3710.55801	0.23746
3708.62944	0.25059
3706.70088	0.26138
3704.77231	0.27188
3702.84375	0.28420
3700.91519	0.29974
3698.98662	0.31647
3697.05806	0.33236
3695.12949	0.34915
3693.20093	0.36704
3691.27236	0.38681
3689.34380	0.41296
3687.41523	0.44559
3685.48667	0.47394
3683.55811	0.49791
3681.62954	0.52316
3679.70098	0.55156
3677.77241	0.58155
3675.84385	0.61710
3673.91528	0.66647
3671.98672	0.70743
3670.05815	0.74345
3668.12959	0.79277
3666.20103	0.83725
3664.27246	0.87418
3662.34390	0.91384
3660.41533	0.95671
3658.48677	0.99865
3656.55820	1.04264
3654.62964	1.09210
3652.70107	1.13395
3650.77251	1.16968
3648.84395	1.22023
3646.91538	1.28580
3644.98682	1.33302
3643.05825	1.36739
3641.12969	1.40259
3639.20112	1.44256
3637.27256	1.48350
3635.34399	1.52257
3633.41543	1.56063
3631.48687	1.59647
3629.55830	1.63350
3627.62974	1.68277
3625.70117	1.72875
3623.77261	1.76024
3621.84404	1.79074
3619.91548	1.82491
3617.98691	1.86558
3616.05835	1.90480
3614.12979	1.93815
3612.20122	1.97447
3610.27266	2.01127
3608.34409	2.04718
3606.41553	2.08502
3604.48696	2.12047
3602.55840	2.15239
3600.62983	2.18677
3598.70127	2.22401
3596.77271	2.26015
3594.84414	2.29635
3592.91558	2.33371
3590.98701	2.36877
3589.05845	2.40114
3587.12988	2.44040
3585.20132	2.48522
3583.27275	2.52324
3581.34419	2.55759
3579.41562	2.59351
3577.48706	2.63081
3575.55850	2.66854
3573.62993	2.70750
3571.70137	2.74517
3569.77280	2.78075
3567.84424	2.81979
3565.91567	2.86947
3563.98711	2.91736
3562.05854	2.95503
3560.12998	2.99254
3558.20142	3.03365
3556.27285	3.07473
3554.34429	3.11242
3552.41572	3.15117
3550.48716	3.19364
3548.55859	3.23491
3546.63003	3.27378
3544.70146	3.31532
3542.77290	3.35960
3540.84434	3.40313
3538.91577	3.44735
3536.98721	3.49277
3535.05864	3.53640
3533.13008	3.57531
3531.20151	3.61405
3529.27295	3.65681
3527.34438	3.70174
3525.41582	3.74459
3523.48726	3.78719
3521.55869	3.83458
3519.63013	3.88212
3517.70156	3.92509
3515.77300	3.96560
3513.84443	4.00830
3511.91587	4.05414
3509.98730	4.10042
3508.05874	4.14534
3506.13018	4.18647
3504.20161	4.22453
3502.27305	4.26531
3500.34448	4.30872
3498.41592	4.35067
3496.48735	4.39374
3494.55879	4.43801
3492.63022	4.47937
3490.70166	4.51963
3488.77310	4.56341
3486.84453	4.60900
3484.91597	4.65433
3482.98740	4.69982
3481.05884	4.74517
3479.13027	4.79330
3477.20171	4.84133
3475.27314	4.88206
3473.34458	4.92080
3471.41602	4.96470
3469.48745	5.01100
3467.55889	5.05592
3465.63032	5.10149
3463.70176	5.15396
3461.77319	5.20508
3459.84463	5.24456
3457.91606	5.28374
3455.98750	5.32916
3454.05894	5.37424
3452.13037	5.42445
3450.20181	5.48080
3448.27324	5.52735
3446.34468	5.55773
3444.41611	5.58526
3442.48755	5.62817
3440.55898	5.67678
3438.63042	5.72152
3436.70186	5.77201
3434.77329	5.82262
3432.84473	5.86736
3430.91616	5.91816
3428.98760	5.97542
3427.05903	6.01967
3425.13047	6.05159
3423.20190	6.08744
3421.27334	6.14453
3419.34478	6.21503
3417.41621	6.26109
3415.48765	6.28015
3413.55908	6.29831
3411.63052	6.32494
3409.70195	6.36551
3407.77339	6.43099
3405.84482	6.50178
3403.91626	6.55648
3401.98770	6.59126
3400.05913	6.61704
3398.13057	6.65217
3396.20200	6.69697
3394.27344	6.73453
3392.34487	6.74797
3390.41631	6.75153
3388.48774	6.75827
3386.55918	6.78981
3384.63062	6.85900
3382.70205	6.93993
3380.77349	6.98198
3378.84492	6.97945
3376.91636	6.99160
3374.98779	7.03195
3373.05923	7.08479
3371.13066	7.12048
3369.20210	7.11526
3367.27354	7.09151
3365.34497	7.09198
3363.41641	7.12776
3361.48784	7.18560
3359.55928	7.24945
3357.63071	7.27336
3355.70215	7.25969
3353.77358	7.24507
3351.84502	7.24792
3349.91646	7.27079
3347.98789	7.31493
3346.05933	7.36539
3344.13076	7.36418
3342.20220	7.29917
3340.27363	7.26046
3338.34507	7.29962
3336.41650	7.34491
3334.48794	7.37150
3332.55937	7.38938
3330.63081	7.38480
3328.70225	7.40049
3326.77368	7.43435
3324.84512	7.43730
3322.91655	7.43001
3320.98799	7.43938
3319.05942	7.43814
3317.13086	7.42472
3315.20229	7.42620
3313.27373	7.44931
3311.34517	7.45634
3309.41660	7.44041
3307.48804	7.42592
3305.55947	7.40795
3303.63091	7.39957
3301.70234	7.42738
3299.77378	7.47283
3297.84521	7.45448
3295.91665	7.38781
3293.98809	7.36381
3292.05952	7.41044
3290.13096	7.48923
3288.20239	7.52820
3286.27383	7.52040
3284.34526	7.51139
3282.41670	7.51889
3280.48813	7.50540
3278.55957	7.45358
3276.63101	7.43119
3274.70244	7.50016
3272.77388	7.58625
3270.84531	7.57168
3268.91675	7.50061
3266.98818	7.45951
3265.05962	7.45084
3263.13105	7.44291
3261.20249	7.44705
3259.27393	7.48858
3257.34536	7.55680
3255.41680	7.59614
3253.48823	7.55849
3251.55967	7.48096
3249.63110	7.46212
3247.70254	7.53315
3245.77397	7.59641
3243.84541	7.59597
3241.91685	7.57431
3239.98828	7.55719
3238.05972	7.54632
3236.13115	7.51498
3234.20259	7.45658
3232.27402	7.39680
3230.34546	7.34467
3228.41689	7.33111
3226.48833	7.37774
3224.55977	7.41254
3222.63120	7.37488
3220.70264	7.33871
3218.77407	7.37699
3216.84551	7.42531
3214.91694	7.38991
3212.98838	7.30680
3211.05981	7.25031
3209.13125	7.22234
3207.20269	7.20419
3205.27412	7.19160
3203.34556	7.16568
3201.41699	7.12239
3199.48843	7.08118
3197.55986	7.05945
3195.63130	7.06651
3193.70273	7.06083
3191.77417	6.98482
3189.84561	6.89906
3187.91704	6.86049
3185.98848	6.82606
3184.05991	6.78469
3182.13135	6.74124
3180.20278	6.67881
3178.27422	6.61375
3176.34565	6.56802
3174.41709	6.52591
3172.48853	6.46836
3170.55996	6.40782
3168.63140	6.35793
3166.70283	6.32138
3164.77427	6.29165
3162.84570	6.24675
3160.91714	6.17380
3158.98857	6.09631
3157.06001	6.03409
3155.13145	5.97697
3153.20288	5.91428
3151.27432	5.84893
3149.34575	5.78945
3147.41719	5.73174
3145.48862	5.66590
3143.56006	5.59857
3141.63149	5.53675
3139.70293	5.47558
3137.77437	5.41599
3135.84580	5.35892
3133.91724	5.29697
3131.98867	5.22946
3130.06011	5.16337
3128.13154	5.09868
3126.20298	5.03411
3124.27441	4.97564
3122.34585	4.91696
3120.41729	4.84770
3118.48872	4.77674
3116.56016	4.71139
3114.63159	4.64431
3112.70303	4.57197
3110.77446	4.50208
3108.84590	4.44215
3106.91733	4.38609
3104.98877	4.32377
3103.06021	4.25942
3101.13164	4.19941
3099.20308	4.14265
3097.27451	4.08508
3095.34595	4.02394
3093.41738	3.96223
3091.48882	3.90123
3089.56025	3.83973
3087.63169	3.78003
3085.70312	3.72262
3083.77456	3.66544
3081.84600	3.60877
3079.91743	3.55327
3077.98887	3.49868
3076.06030	3.44379
3074.13174	3.38805
3072.20317	3.33309
3070.27461	3.27972
3068.34604	3.22744
3066.41748	3.17499
3064.48892	3.12228
3062.56035	3.07078
3060.63179	3.01935
3058.70322	2.96714
3056.77466	2.91672
3054.84609	2.86947
3052.91753	2.82390
3050.98896	2.77838
3049.06040	2.73213
3047.13184	2.68525
3045.20327	2.63890
3043.27471	2.59397
3041.34614	2.55027
3039.41758	2.50720
3037.48901	2.46399
3035.56045	2.42068
3033.63188	2.37862
3031.70332	2.33818
3029.77476	2.29824
3027.84619	2.25866
3025.91763	2.22001
3023.98906	2.18168
3022.06050	2.14305
3020.13193	2.10502
3018.20337	2.06825
3016.27480	2.03208
3014.34624	1.99575
3012.41768	1.96008
3010.48911	1.92568
3008.56055	1.89186
3006.63198	1.85862
3004.70342	1.82584
3002.77485	1.79290
3000.84629	1.76052
2998.91772	1.72913
2996.98916	1.69795
2995.06060	1.66686
2993.13203	1.63652
2991.20347	1.60707
2989.27490	1.57824
2987.34634	1.54987
2985.41777	1.52135
2983.48921	1.49253
2981.56064	1.46448
2979.63208	1.43793
2977.70352	1.41214
2975.77495	1.38617
2973.84639	1.36029
2971.91782	1.33471
2969.98926	1.30895
2968.06069	1.28312
2966.13213	1.25819
2964.20356	1.23446
2962.27500	1.21145
2960.34644	1.18914
2958.41787	1.16743
2956.48931	1.14574
2954.56074	1.12416
2952.63218	1.10307
2950.70361	1.08228
2948.77505	1.06170
2946.84648	1.04153
2944.91792	1.02168
2942.98936	1.00206
2941.06079	0.98273
2939.13223	0.96375
2937.20366	0.94495
2935.27510	0.92615
2933.34653	0.90782
2931.41797	0.89057
2929.48940	0.87414
2927.56084	0.85808
2925.63228	0.84209
2923.70371	0.82607
2921.77515	0.81073
2919.84658	0.79663
2917.91802	0.78338
2915.98945	0.77031
2914.06089	0.75662
2912.13232	0.74235
2910.20376	0.72867
2908.27520	0.71595
2906.34663	0.70369
2904.41807	0.69176
2902.48950	0.68017
2900.56094	0.66870
2898.63237	0.65735
2896.70381	0.64633
2894.77524	0.63552
2892.84668	0.62465
2890.91812	0.61378
2888.98955	0.60330
2887.06099	0.59317
2885.13242	0.58310
2883.20386	0.57300
2881.27529	0.56300
2879.34673	0.55332
2877.41816	0.54396
2875.48960	0.53477
2873.56104	0.52575
2871.63247	0.51679
2869.70391	0.50762
2867.77534	0.49838
2865.84678	0.48931
2863.91821	0.48033
2861.98965	0.47137
2860.06108	0.46260
2858.13252	0.45416
2856.20396	0.44611
2854.27539	0.43852
2852.34683	0.43148
2850.41826	0.42482
2848.48970	0.41810
2846.56113	0.41145
2844.63257	0.40543
2842.70400	0.40002
2840.77544	0.39481
2838.84687	0.38978
2836.91831	0.38500
2834.98975	0.38011
2833.06118	0.37495
2831.13262	0.36977
2829.20405	0.36467
2827.27549	0.35957
2825.34692	0.35447
2823.41836	0.34934
2821.48979	0.34414
2819.56123	0.33891
2817.63267	0.33365
2815.70410	0.32855
2813.77554	0.32381
2811.84697	0.31924
2809.91841	0.31467
2807.98984	0.31025
2806.06128	0.30595
2804.13271	0.30150
2802.20415	0.29702
2800.27559	0.29271
2798.34702	0.28850
2796.41846	0.28424
2794.48989	0.27999
2792.56133	0.27590
2790.63276	0.27209
2788.70420	0.26852
2786.77563	0.26508
2784.84707	0.26170
2782.91851	0.25834
2780.98994	0.25491
2779.06138	0.25154
2777.13281	0.24837
2775.20425	0.24518
2773.27568	0.24181
2771.34712	0.23852
2769.41855	0.23552
2767.48999	0.23258
2765.56143	0.22965
2763.63286	0.22688
2761.70430	0.22412
2759.77573	0.22123
2757.84717	0.21844
2755.91860	0.21587
2753.99004	0.21334
2752.06147	0.21077
2750.13291	0.20818
2748.20435	0.20575
2746.27578	0.20360
2744.34722	0.20139
2742.41865	0.19892
2740.49009	0.19652
2738.56152	0.19456
2736.63296	0.19282
2734.70439	0.19095
2732.77583	0.18884
2730.84727	0.18659
2728.91870	0.18449
2726.99014	0.18271
2725.06157	0.18100
2723.13301	0.17919
2721.20444	0.17747
2719.27588	0.17581
2717.34731	0.17400
2715.41875	0.17212
2713.49019	0.17043
2711.56162	0.16899
2709.63306	0.16766
2707.70449	0.16627
2705.77593	0.16479
2703.84736	0.16338
2701.91880	0.16205
2699.99023	0.16080
2698.06167	0.15968
2696.13311	0.15863
2694.20454	0.15750
2692.27598	0.15616
2690.34741	0.15483
2688.41885	0.15377
2686.49028	0.15277
2684.56172	0.15167
2682.63315	0.15067
2680.70459	0.14983
2678.77603	0.14888
2676.84746	0.14782
2674.91890	0.14685
2672.99033	0.14598
2671.06177	0.14516
2669.13320	0.14431
2667.20464	0.14346
2665.27607	0.14268
2663.34751	0.14194
2661.41895	0.14130
2659.49038	0.14079
2657.56182	0.14022
2655.63325	0.13956
2653.70469	0.13897
2651.77612	0.13849
2649.84756	0.13807
2647.91899	0.13763
2645.99043	0.13704
2644.06187	0.13644
2642.13330	0.13604
2640.20474	0.13579
2638.27617	0.13553
2636.34761	0.13516
2634.41904	0.13480
2632.49048	0.13457
2630.56191	0.13438
2628.63335	0.13418
2626.70479	0.13401
2624.77622	0.13382
2622.84766	0.13354
2620.91909	0.13321
2618.99053	0.13303
2617.06196	0.13308
2615.13340	0.13307
2613.20483	0.13291
2611.27627	0.13287
2609.34771	0.13304
2607.41914	0.13317
2605.49058	0.13314
2603.56201	0.13310
2601.63345	0.13320
2599.70488	0.13325
2597.77632	0.13316
2595.84775	0.13314
2593.91919	0.13329
2591.99062	0.13347
2590.06206	0.13366
2588.13350	0.13392
2586.20493	0.13424
2584.27637	0.13453
2582.34780	0.13476
2580.41924	0.13512
2578.49067	0.13562
2576.56211	0.13608
2574.63354	0.13640
2572.70498	0.13667
2570.77642	0.13698
2568.84785	0.13739
2566.91929	0.13788
2564.99072	0.13844
2563.06216	0.13895
2561.13359	0.13935
2559.20503	0.13979
2557.27646	0.14031
2555.34790	0.14096
2553.41934	0.14168
2551.49077	0.14232
2549.56221	0.14284
2547.63364	0.14321
2545.70508	0.14357
2543.77651	0.14411
2541.84795	0.14475
2539.91938	0.14531
2537.99082	0.14593
2536.06226	0.14670
2534.13369	0.14743
2532.20513	0.14811
2530.27656	0.14886
2528.34800	0.14961
2526.41943	0.15031
2524.49087	0.15103
2522.56230	0.15181
2520.63374	0.15265
2518.70518	0.15349
2516.77661	0.15422
2514.84805	0.15484
2512.91948	0.15543
2510.99092	0.15615
2509.06235	0.15708
2507.13379	0.15805
2505.20522	0.15884
2503.27666	0.15956
2501.34810	0.16035
2499.41953	0.16113
2497.49097	0.16184
2495.56240	0.16258
2493.63384	0.16341
2491.70527	0.16426
2489.77671	0.16505
2487.84814	0.16585
2485.91958	0.16679
2483.99102	0.16776
2482.06245	0.16869
2480.13389	0.16957
2478.20532	0.17045
2476.27676	0.17135
2474.34819	0.17219
2472.41963	0.17301
2470.49106	0.17393
2468.56250	0.17486
2466.63394	0.17582
2464.70537	0.17685
2462.77681	0.17779
2460.84824	0.17870
2458.91968	0.17972
2456.99111	0.18073
2455.06255	0.18160
2453.13398	0.18248
2451.20542	0.18339
2449.27686	0.18428
2447.34829	0.18527
2445.41973	0.18628
2443.49116	0.18722
2441.56260	0.18815
2439.63403	0.18906
2437.70547	0.18992
2435.77690	0.19093
2433.84834	0.19204
2431.91978	0.19303
2429.99121	0.19397
2428.06265	0.19497
2426.13408	0.19597
2424.20552	0.19695
2422.27695	0.19799
2420.34839	0.19905
2418.41982	0.20003
2416.49126	0.20102
2414.56270	0.20207
2412.63413	0.20314
2410.70557	0.20422
2408.77700	0.20538
2406.84844	0.20657
2404.91987	0.20772
2402.99131	0.20892
2401.06274	0.21021
2399.13418	0.21145
2397.20562	0.21258
2395.27705	0.21367
2393.34849	0.21472
2391.41992	0.21579
2389.49136	0.21692
2387.56279	0.21816
2385.63423	0.21946
2383.70566	0.22082
2381.77710	0.22219
2379.84854	0.22353
2377.91997	0.22488
2375.99141	0.22619
2374.06284	0.22747
2372.13428	0.22913
2370.20571	0.23113
2368.27715	0.23287
2366.34858	0.23425
2364.42002	0.23539
2362.49146	0.23675
2360.56289	0.23884
2358.63433	0.24056
2356.70576	0.24160
2354.77720	0.24332
2352.84863	0.24552
2350.92007	0.24684
2348.99150	0.24726
2347.06294	0.24763
2345.13437	0.24888
2343.20581	0.25147
2341.27725	0.25427
2339.34868	0.25596
2337.42012	0.25654
2335.49155	0.25717
2333.56299	0.25869
2331.63442	0.26067
2329.70586	0.26207
2327.77729	0.26320
2325.84873	0.26478
2323.92017	0.26654
2321.99160	0.26811
2320.06304	0.26948
2318.13447	0.27081
2316.20591	0.27216
2314.27734	0.27360
2312.34878	0.27513
2310.42021	0.27675
2308.49165	0.27833
2306.56309	0.27978
2304.63452	0.28115
2302.70596	0.28258
2300.77739	0.28401
2298.84883	0.28549
2296.92026	0.28719
2294.99170	0.28907
2293.06313	0.29089
2291.13457	0.29258
2289.20601	0.29426
2287.27744	0.29596
2285.34888	0.29773
2283.42031	0.29955
2281.49175	0.30134
2279.56318	0.30311
2277.63462	0.30501
2275.70605	0.30703
2273.77749	0.30901
2271.84893	0.31088
2269.92036	0.31276
2267.99180	0.31472
2266.06323	0.31673
2264.13467	0.31876
2262.20610	0.32078
2260.27754	0.32273
2258.34897	0.32442
2256.42041	0.32600
2254.49185	0.32799
2252.56328	0.33033
2250.63472	0.33249
2248.70615	0.33444
2246.77759	0.33643
2244.84902	0.33849
2242.92046	0.34060
2240.99189	0.34270
2239.06333	0.34470
2237.13477	0.34667
2235.20620	0.34871
2233.27764	0.35069
2231.34907	0.35262
2229.42051	0.35462
2227.49194	0.35662
2225.56338	0.35859
2223.63481	0.36065
2221.70625	0.36282
2219.77769	0.36499
2217.84912	0.36707
2215.92056	0.36900
2213.99199	0.37092
2212.06343	0.37291
2210.13486	0.37492
2208.20630	0.37684
2206.27773	0.37866
2204.34917	0.38058
2202.42061	0.38263
2200.49204	0.38463
2198.56348	0.38647
2196.63491	0.38824
2194.70635	0.38997
2192.77778	0.39176
2190.84922	0.39359
2188.92065	0.39535
2186.99209	0.39703
2185.06353	0.39863
2183.13496	0.40021
2181.20640	0.40181
2179.27783	0.40342
2177.34927	0.40503
2175.42070	0.40651
2173.49214	0.40784
2171.56357	0.40912
2169.63501	0.41041
2167.70645	0.41162
2165.77788	0.41280
2163.84932	0.41398
2161.92075	0.41504
2159.99219	0.41601
2158.06362	0.41699
2156.13506	0.41794
2154.20649	0.41882
2152.27793	0.41963
2150.34937	0.42030
2148.42080	0.42083
2146.49224	0.42134
2144.56367	0.42184
2142.63511	0.42223
2140.70654	0.42252
2138.77798	0.42278
2136.84941	0.42299
2134.92085	0.42314
2132.99229	0.42311
2131.06372	0.42289
2129.13516	0.42274
2127.20659	0.42269
2125.27803	0.42256
2123.34946	0.42222
2121.42090	0.42171
2119.49233	0.42120
2117.56377	0.42074
2115.63521	0.42012
2113.70664	0.41933
2111.77808	0.41854
2109.84951	0.41774
2107.92095	0.41683
2105.99238	0.41577
2104.06382	0.41466
2102.13525	0.41348
2100.20669	0.41221
2098.27812	0.41087
2096.34956	0.40951
2094.42100	0.40814
2092.49243	0.40677
2090.56387	0.40534
2088.63530	0.40383
2086.70674	0.40221
2084.77817	0.40038
2082.84961	0.39851
2080.92104	0.39680
2078.99248	0.39512
2077.06392	0.39327
2075.13535	0.39129
2073.20679	0.38932
2071.27822	0.38735
2069.34966	0.38525
2067.42109	0.38306
2065.49253	0.38090
2063.56396	0.37873
2061.63540	0.37657
2059.70684	0.37439
2057.77827	0.37213
2055.84971	0.36975
2053.92114	0.36735
2051.99258	0.36501
2050.06401	0.36272
2048.13545	0.36045
2046.20688	0.35810
2044.27832	0.35567
2042.34976	0.35322
2040.42119	0.35073
2038.49263	0.34816
2036.56406	0.34554
2034.63550	0.34294
2032.70693	0.34041
2030.77837	0.33792
2028.84980	0.33531
2026.92124	0.33268
2024.99268	0.33015
2023.06411	0.32772
2021.13555	0.32536
2019.20698	0.32294
2017.27842	0.32035
2015.34985	0.31762
2013.42129	0.31497
2011.49272	0.31241
2009.56416	0.30991
2007.63560	0.30743
2005.70703	0.30492
2003.77847	0.30241
2001.84990	0.29996
1999.92134	0.29758
1997.99277	0.29520
1996.06421	0.29284
1994.13564	0.29050
1992.20708	0.28816
1990.27852	0.28571
1988.34995	0.28332
1986.42139	0.28117
1984.49282	0.27907
1982.56426	0.27682
1980.63569	0.27457
1978.70713	0.27240
1976.77856	0.27023
1974.85000	0.26811
1972.92144	0.26609
1970.99287	0.26412
1969.06431	0.26216
1967.13574	0.26024
1965.20718	0.25838
1963.27861	0.25663
1961.35005	0.25486
1959.42148	0.25302
1957.49292	0.25132
1955.56436	0.24974
1953.63579	0.24810
1951.70723	0.24642
1949.77866	0.24482
1947.85010	0.24332
1945.92153	0.24195
1943.99297	0.24063
1942.06440	0.23924
1940.13584	0.23784
1938.20728	0.23651
1936.27871	0.23519
1934.35015	0.23390
1932.42158	0.23274
1930.49302	0.23168
1928.56445	0.23070
1926.63589	0.22974
1924.70732	0.22881
1922.77876	0.22789
1920.85020	0.22686
1918.92163	0.22590
1916.99307	0.22514
1915.06450	0.22434
1913.13594	0.22343
1911.20737	0.22263
1909.27881	0.22196
1907.35024	0.22141
1905.42168	0.22094
1903.49312	0.22043
1901.56455	0.21977
1899.63599	0.21917
1897.70742	0.21873
1895.77886	0.21835
1893.85029	0.21797
1891.92173	0.21760
1889.99316	0.21735
1888.06460	0.21710
1886.13604	0.21681
1884.20747	0.21661
1882.27891	0.21645
1880.35034	0.21632
1878.42178	0.21627
1876.49321	0.21624
1874.56465	0.21620
1872.63608	0.21623
1870.70752	0.21637
1868.77896	0.21680
1866.85039	0.21720
1864.92183	0.21718
1862.99326	0.21720
1861.06470	0.21742
1859.13613	0.21774
1857.20757	0.21801
1855.27900	0.21832
1853.35044	0.21868
1851.42187	0.21916
1849.49331	0.21974
1847.56475	0.22039
1845.63618	0.22114
1843.70762	0.22202
1841.77905	0.22269
1839.85049	0.22304
1837.92192	0.22364
1835.99336	0.22444
1834.06479	0.22528
1832.13623	0.22618
1830.20767	0.22752
1828.27910	0.22897
1826.35054	0.23001
1824.42197	0.23113
1822.49341	0.23221
1820.56484	0.23325
1818.63628	0.23445
1816.70771	0.23595
1814.77915	0.23749
1812.85059	0.23903
1810.92202	0.24077
1808.99346	0.24262
1807.06489	0.24442
1805.13633	0.24620
1803.20776	0.24827
1801.27920	0.25062
1799.35063	0.25317
1797.42207	0.25545
1795.49351	0.25760
1793.56494	0.26011
1791.63638	0.26337
1789.70781	0.26647
1787.77925	0.26885
1785.85068	0.27174
1783.92212	0.27522
1781.99355	0.27892
1780.06499	0.28279
1778.13643	0.28676
1776.20786	0.29045
1774.27930	0.29427
1772.35073	0.29949
1770.42217	0.30540
1768.49360	0.31035
1766.56504	0.31499
1764.63647	0.31959
1762.70791	0.32463
1760.77935	0.33132
1758.85078	0.33766
1756.92222	0.34390
1754.99365	0.35063
1753.06509	0.35654
1751.13652	0.36359
1749.20796	0.37287
1747.27939	0.38225
1745.35083	0.39045
1743.42227	0.39923
1741.49370	0.40907
1739.56514	0.42082
1737.63657	0.43256
1735.70801	0.44257
1733.77944	0.45790
1731.85088	0.47698
1729.92231	0.49198
1727.99375	0.50673
1726.06519	0.52224
1724.13662	0.53915
1722.20806	0.55746
1720.27949	0.57420
1718.35093	0.59381
1716.42236	0.62370
1714.49380	0.65214
1712.56523	0.67448
1710.63667	0.69593
1708.70811	0.71899
1706.77954	0.74513
1704.85098	0.77653
1702.92241	0.80432
1700.99385	0.83107
1699.06528	0.87157
1697.13672	0.90921
1695.20815	0.94743
1693.27959	0.98355
1691.35103	1.01169
1689.42246	1.04415
1687.49390	1.07835
1685.56533	1.11073
1683.63677	1.16174
1681.70820	1.21492
1679.77964	1.24796
1677.85107	1.27938
1675.92251	1.31542
1673.99395	1.36016
1672.06538	1.39949
1670.13682	1.43794
1668.20825	1.48852
1666.27969	1.52774
1664.35112	1.55919
1662.42256	1.59842
1660.49399	1.64267
1658.56543	1.67655
1656.63687	1.70400
1654.70830	1.73021
1652.77974	1.77824
1650.85117	1.82849
1648.92261	1.84818
1646.99404	1.87334
1645.06548	1.90338
1643.13691	1.92449
1641.20835	1.93831
1639.27979	1.95015
1637.35122	1.95770
1635.42266	1.95904
1633.49409	1.95483
1631.56553	1.94669
1629.63696	1.93512
1627.70840	1.91409
1625.77983	1.89016
1623.85127	1.86023
1621.92271	1.82146
1619.99414	1.78598
1618.06558	1.75058
1616.13701	1.69787
1614.20845	1.64379
1612.27988	1.60353
1610.35132	1.56141
1608.42275	1.51454
1606.49419	1.46759
1604.56562	1.42434
1602.63706	1.38218
1600.70850	1.34064
1598.77993	1.30230
1596.85137	1.26582
1594.92280	1.23013
1592.99424	1.19569
1591.06567	1.16398
1589.13711	1.13380
1587.20854	1.10501
1585.27998	1.07764
1583.35142	1.05149
1581.42285	1.02742
1579.49429	1.00681
1577.56572	0.98792
1575.63716	0.96379
1573.70859	0.94212
1571.78003	0.92799
1569.85146	0.91207
1567.92290	0.89289
1565.99434	0.87763
1564.06577	0.86467
1562.13721	0.85370
1560.20864	0.84444
1558.28008	0.82709
1556.35151	0.81021
1554.42295	0.80032
1552.49438	0.79078
1550.56582	0.78146
1548.63726	0.77216
1546.70869	0.76412
1544.78013	0.75678
1542.85156	0.74917
1540.92300	0.74061
1538.99443	0.72933
1537.06587	0.72155
1535.13730	0.71639
1533.20874	0.70972
1531.28018	0.70248
1529.35161	0.69713
1527.42305	0.69211
1525.49448	0.68679
1523.56592	0.68186
1521.63735	0.67647
1519.70879	0.67043
1517.78022	0.66538
1515.85166	0.66002
1513.92310	0.65489
1511.99453	0.65109
1510.06597	0.64807
1508.13740	0.64537
1506.20884	0.64055
1504.28027	0.63557
1502.35171	0.63248
1500.42314	0.62985
1498.49458	0.62709
1496.56602	0.62370
1494.63745	0.62023
1492.70889	0.61749
1490.78032	0.61522
1488.85176	0.61269
1486.92319	0.60968
1484.99463	0.60666
1483.06606	0.60403
1481.13750	0.60150
1479.20894	0.59887
1477.28037	0.59646
1475.35181	0.59426
1473.42324	0.59165
1471.49468	0.58780
1469.56611	0.58436
1467.63755	0.58197
1465.70898	0.57985
1463.78042	0.57756
1461.85186	0.57544
1459.92329	0.57374
1457.99473	0.57192
1456.06616	0.56934
1454.13760	0.56709
1452.20903	0.56545
1450.28047	0.56391
1448.35190	0.56250
1446.42334	0.56115
1444.49478	0.55978
1442.56621	0.55850
1440.63765	0.55738
1438.70908	0.55628
1436.78052	0.55507
1434.85195	0.55381
1432.92339	0.55259
1430.99482	0.55143
1429.06626	0.55016
1427.13770	0.54876
1425.20913	0.54740
1423.28057	0.54616
1421.35200	0.54499
1419.42344	0.54365
1417.49487	0.54209
1415.56631	0.54052
1413.63774	0.53906
1411.70918	0.53770
1409.78062	0.53642
1407.85205	0.53524
1405.92349	0.53410
1403.99492	0.53277
1402.06636	0.53143
1400.13779	0.53043
1398.20923	0.52953
1396.28066	0.52847
1394.35210	0.52713
1392.42354	0.52565
1390.49497	0.52438
1388.56641	0.52335
1386.63784	0.52225
1384.70928	0.52097
1382.78071	0.51982
1380.85215	0.51883
1378.92358	0.51789
1376.99502	0.51707
1375.06646	0.51633
1373.13789	0.51538
1371.20933	0.51431
1369.28076	0.51338
1367.35220	0.51251
1365.42363	0.51166
1363.49507	0.51090
1361.56650	0.51014
1359.63794	0.50925
1357.70937	0.50845
1355.78081	0.50778
1353.85225	0.50706
1351.92368	0.50626
1349.99512	0.50541
1348.06655	0.50460
1346.13799	0.50388
1344.20942	0.50314
1342.28086	0.50243
1340.35229	0.50187
1338.42373	0.50114
1336.49517	0.50014
1334.56660	0.49918
1332.63804	0.49835
1330.70947	0.49755
1328.78091	0.49686
1326.85234	0.49616
1324.92378	0.49540
1322.99521	0.49463
1321.06665	0.49388
1319.13809	0.49314
1317.20952	0.49235
1315.28096	0.49149
1313.35239	0.49062
1311.42383	0.48983
1309.49526	0.48917
1307.56670	0.48856
1305.63813	0.48782
1303.70957	0.48702
1301.78101	0.48632
1299.85244	0.48573
1297.92388	0.48520
1295.99531	0.48469
1294.06675	0.48406
1292.13818	0.48328
1290.20962	0.48256
1288.28105	0.48192
1286.35249	0.48129
1284.42393	0.48078
1282.49536	0.48039
1280.56680	0.48002
1278.63823	0.47964
1276.70967	0.47932
1274.78110	0.47899
1272.85254	0.47851
1270.92397	0.47794
1268.99541	0.47737
1267.06685	0.47686
1265.13828	0.47629
1263.20972	0.47565
1261.28115	0.47518
1259.35259	0.47498
1257.42402	0.47481
1255.49546	0.47466
1253.56689	0.47457
1251.63833	0.47447
1249.70977	0.47442
1247.78120	0.47436
1245.85264	0.47416
1243.92407	0.47385
1241.99551	0.47352
1240.06694	0.47316
1238.13838	0.47275
1236.20981	0.47232
1234.28125	0.47194
1232.35269	0.47157
1230.42412	0.47105
1228.49556	0.47037
1226.56699	0.46962
1224.63843	0.46899
1222.70986	0.46863
1220.78130	0.46834
1218.85273	0.46785
1216.92417	0.46727
1214.99561	0.46665
1213.06704	0.46598
1211.13848	0.46544
1209.20991	0.46508
1207.28135	0.46467
1205.35278	0.46419
1203.42422	0.46376
1201.49565	0.46334
1199.56709	0.46286
1197.63853	0.46236
1195.70996	0.46179
1193.78140	0.46111
1191.85283	0.46047
1189.92427	0.46004
1187.99570	0.45969
1186.06714	0.45943
1184.13857	0.45929
1182.21001	0.45919
1180.28145	0.45919
1178.35288	0.45942
1176.42432	0.45987
1174.49575	0.46040
1172.56719	0.46084
1170.63862	0.46119
1168.71006	0.46153
1166.78149	0.46182
1164.85293	0.46202
1162.92437	0.46210
1160.99580	0.46188
1159.06724	0.46138
1157.13867	0.46074
1155.21011	0.45993
1153.28154	0.45889
1151.35298	0.45759
1149.42441	0.45589
1147.49585	0.45389
1145.56729	0.45188
1143.63872	0.44996
1141.71016	0.44806
1139.78159	0.44600
1137.85303	0.44381
1135.92446	0.44168
1133.99590	0.43972
1132.06733	0.43796
1130.13877	0.43652
1128.21021	0.43533
1126.28164	0.43409
1124.35308	0.43269
1122.42451	0.43156
1120.49595	0.43085
1118.56738	0.43029
1116.63882	0.42992
1114.71025	0.42986
1112.78169	0.42996
1110.85312	0.43019
1108.92456	0.43069
1106.99600	0.43143
1105.06743	0.43239
1103.13887	0.43366
1101.21030	0.43533
1099.28174	0.43752
1097.35317	0.44024
1095.42461	0.44320
1093.49604	0.44625
1091.56748	0.44971
1089.63892	0.45373
1087.71035	0.45828
1085.78179	0.46354
1083.85322	0.46944
1081.92466	0.47545
1079.99609	0.48073
1078.06753	0.48429
1076.13896	0.48544
1074.21040	0.48416
1072.28184	0.48078
1070.35327	0.47579
1068.42471	0.46994
1066.49614	0.46401
1064.56758	0.45859
1062.63901	0.45381
1060.71045	0.44942
1058.78188	0.44532
1056.85332	0.44160
1054.92476	0.43839
1052.99619	0.43587
1051.06763	0.43376
1049.13906	0.43162
1047.21050	0.42967
1045.28193	0.42835
1043.35337	0.42740
1041.42480	0.42641
1039.49624	0.42560
1037.56768	0.42517
1035.63911	0.42492
1033.71055	0.42479
1031.78198	0.42491
1029.85342	0.42521
1027.92485	0.42559
1025.99629	0.42600
1024.06772	0.42648
1022.13916	0.42713
1020.21060	0.42791
1018.28203	0.42877
1016.35347	0.42963
1014.42490	0.43053
1012.49634	0.43170
1010.56777	0.43307
1008.63921	0.43453
1006.71064	0.43618
1004.78208	0.43805
1002.85352	0.44028
1000.92495	0.44295
998.99639	0.44594
997.06782	0.44908
995.13926	0.45249
993.21069	0.45616
991.28213	0.45938
989.35356	0.46170
987.42500	0.46331
985.49644	0.46443
983.56787	0.46522
981.63931	0.46619
979.71074	0.46770
977.78218	0.46963
975.85361	0.47179
973.92505	0.47428
971.99648	0.47710
970.06792	0.48012
968.13936	0.48344
966.21079	0.48715
964.28223	0.49123
962.35366	0.49574
960.42510	0.50055
958.49653	0.50550
956.56797	0.51068
954.63940	0.51596
952.71084	0.52136
950.78228	0.52713
948.85371	0.53319
946.92515	0.53911
944.99658	0.54448
943.06802	0.54975
941.13945	0.55540
939.21089	0.56068
937.28232	0.56525
935.35376	0.56989
933.42520	0.57504
931.49663	0.58059
929.56807	0.58609
927.63950	0.59118
925.71094	0.59635
923.78237	0.60224
921.85381	0.60869
919.92524	0.61504
917.99668	0.62102
916.06812	0.62696
914.13955	0.63335
912.21099	0.64031
910.28242	0.64748
908.35386	0.65481
906.42529	0.66242
904.49673	0.67002
902.56816	0.67805
900.63960	0.68688
898.71104	0.69565
896.78247	0.70417
894.85391	0.71294
892.92534	0.72200
890.99678	0.73146
889.06821	0.74126
887.13965	0.75119
885.21108	0.76113
883.28252	0.77120
881.35396	0.78201
879.42539	0.79366
877.49683	0.80464
875.56826	0.81410
873.63970	0.82340
871.71113	0.83302
869.78257	0.84254
867.85400	0.85299
865.92544	0.86433
863.99687	0.87492
862.06831	0.88470
860.13975	0.89381
858.21118	0.90237
856.28262	0.91250
854.35405	0.92423
852.42549	0.93459
850.49692	0.94406
848.56836	0.95521
846.63979	0.96733
844.71123	0.97801
842.78267	0.98688
840.85410	0.99692
838.92554	1.00877
836.99697	1.01899
835.06841	1.02596
833.13984	1.03125
831.21128	1.03964
829.28271	1.05433
827.35415	1.06942
825.42559	1.07982
823.49702	1.09051
821.56846	1.10172
819.63989	1.10776
817.71133	1.11176
815.78276	1.11947
813.85420	1.12988
811.92563	1.14244
809.99707	1.15368
808.06851	1.15636
806.13994	1.16243
804.21138	1.18475
802.28281	1.21256
800.35425	1.23268
798.42568	1.24070
796.49712	1.23531
794.56855	1.23200
792.63999	1.24604
790.71143	1.26100
788.78286	1.26374
786.85430	1.25761
784.92573	1.24433
782.99717	1.25012
781.06860	1.29409
779.14004	1.34755
777.21147	1.37040
775.28291	1.35669
773.35435	1.33430
771.42578	1.34636
769.49722	1.36403
767.56865	1.30850
765.64009	1.23078
763.71152	1.22680
761.78296	1.31387
759.85439	1.43884
757.92583	1.48799
755.99727	1.46301
754.06870	1.42225
752.14014	1.28783
750.21157	1.16692
748.28301	1.17544
746.35444	1.28496
744.42588	1.41860
742.49731	1.30400
740.56875	0.97098
738.64019	0.78637
736.71162	0.76706
734.78306	0.85346
732.85449	0.90980
730.92593	0.83448
728.99736	0.67940
727.06880	0.49856
725.14023	0.30877
723.21167	0.28526
721.28311	0.56385
719.35454	0.35456
717.42598	-0.30091
715.49741	-0.37096
713.56885	-0.27301
711.64028	-0.27770
709.71172	-0.50214
707.78315	-0.40701
705.85459	-0.08227
703.92603	0.17550
701.99746	0.31728
700.06890	0.48340
698.14033	0.72800
696.21177	0.59587
694.28320	0.33378
692.35464	0.22248
690.42607	0.24206
688.49751	0.27365
686.56895	0.29352
684.64038	0.46138
682.71182	0.63563
680.78325	0.50272
678.85469	0.41255
676.92612	0.43462
674.99756	0.52636
673.06899	0.58439
671.14043	0.45041
669.21187	0.32507
667.28330	0.26160
665.35474	0.28313
663.42617	0.40456
661.49761	0.47322
659.56904	0.43561
657.64048	0.42273
655.71191	0.42449
653.78335	0.44772
651.85479	0.47208
649.92622	0.40402
647.99766	0.32057
646.06909	0.33019
644.14053	0.43090
642.21196	0.44108
640.28340	0.33162
638.35483	0.22898
636.42627	0.18283
634.49771	0.20487
632.56914	0.26018
630.64058	0.30432
628.71201	0.37012
626.78345	0.50301
624.85488	0.50750
622.92632	0.43597
620.99775	0.42776
619.06919	0.38763
617.14062	0.29762
615.21206	0.25737
613.28350	0.26546
611.35493	0.25029
609.42637	0.21140
607.49780	0.20279
605.56924	0.29424
603.64067	0.46247
601.71211	0.51838
599.78354	0.42605
597.85498	0.36878
595.92642	0.36130
593.99785	0.37154
592.06929	0.36769
590.14072	0.33933
588.21216	0.33688
586.28359	0.39515
584.35503	0.46413
582.42646	0.41493
580.49790	0.31772
578.56934	0.27826
576.64077	0.27456
574.71221	0.28520
572.78364	0.29177
570.85508	0.26403
568.92651	0.22620
566.99795	0.19881
565.06938	0.20177
563.14082	0.22411
561.21226	0.23907
559.28369	0.25778
557.35513	0.26962
555.42656	0.24603
553.49800	0.22893
551.56943	0.22648
549.64087	0.22180
547.71230	0.26006
545.78374	0.34636
543.85518	0.40101
541.92661	0.42753
539.99805	0.51817
538.06948	0.68297
536.14092	1.26358
534.21235	3.20527
532.28379	0.59968
530.35522	0.39300
528.42666	0.29018
526.49810	0.25859
524.56953	0.24363
522.64097	0.21376
520.71240	0.23854
518.78384	0.33669
516.85527	0.38268
514.92671	0.31222
512.99814	0.24632
511.06958	0.28231
509.14102	0.37601
507.21245	0.37155
505.28389	0.28813
503.35532	0.22776
501.42676	0.19194
499.49819	0.19820
