3997.91411	0.09793
3995.98555	0.09807
3994.05698	0.09847
3992.12842	0.09895
3990.19985	0.09941
3988.27129	0.09999
3986.34272	0.10060
3984.41416	0.10119
3982.48560	0.10150
3980.55703	0.10139
3978.62847	0.10130
3976.69990	0.10172
3974.77134	0.10250
3972.84277	0.10285
3970.91421	0.10257
3968.98564	0.10230
3967.05708	0.10255
3965.12852	0.10307
3963.19995	0.10360
3961.27139	0.10396
3959.34282	0.10388
3957.41426	0.10380
3955.48569	0.10426
3953.55713	0.10479
3951.62856	0.10518
3949.70000	0.10586
3947.77144	0.10632
3945.84287	0.10582
3943.91431	0.10537
3941.98574	0.10548
3940.05718	0.10530
3938.12861	0.10513
3936.20005	0.10539
3934.27148	0.10596
3932.34292	0.10709
3930.41436	0.10795
3928.48579	0.10722
3926.55723	0.10633
3924.62866	0.10676
3922.70010	0.10729
3920.77153	0.10717
3918.84297	0.10731
3916.91440	0.10743
3914.98584	0.10662
3913.05728	0.10529
3911.12871	0.10438
3909.20015	0.10412
3907.27158	0.10505
3905.34302	0.10790
3903.41445	0.11136
3901.48589	0.11241
3899.55732	0.11086
3897.62876	0.10833
3895.70020	0.10651
3893.77163	0.10683
3891.84307	0.10863
3889.91450	0.10915
3887.98594	0.10804
3886.05737	0.10811
3884.12881	0.10941
3882.20024	0.11021
3880.27168	0.11021
3878.34312	0.10882
3876.41455	0.10749
3874.48599	0.10861
3872.55742	0.11156
3870.62886	0.11405
3868.70029	0.11445
3866.77173	0.11341
3864.84316	0.11402
3862.91460	0.11552
3860.98604	0.11446
3859.05747	0.11251
3857.12891	0.11295
3855.20034	0.11630
3853.27178	0.12147
3851.34321	0.12276
3849.41465	0.11848
3847.48608	0.11479
3845.55752	0.11361
3843.62896	0.11505
3841.70039	0.11833
3839.77183	0.12213
3837.84326	0.12460
3835.91470	0.12411
3833.98613	0.12237
3832.05757	0.12127
3830.12900	0.12098
3828.20044	0.12138
3826.27187	0.12225
3824.34331	0.12345
3822.41475	0.12611
3820.48618	0.13050
3818.55762	0.13219
3816.62905	0.13089
3814.70049	0.12911
3812.77192	0.12724
3810.84336	0.12663
3808.91479	0.12811
3806.98623	0.13165
3805.05767	0.13508
3803.12910	0.13728
3801.20054	0.13972
3799.27197	0.14098
3797.34341	0.14062
3795.41484	0.13982
3793.48628	0.13837
3791.55771	0.13751
3789.62915	0.13803
3787.70059	0.13973
3785.77202	0.14245
3783.84346	0.14508
3781.91489	0.14692
3779.98633	0.14899
3778.05776	0.15082
3776.12920	0.15097
3774.20063	0.15107
3772.27207	0.15305
3770.34351	0.15689
3768.41494	0.16053
3766.48638	0.16225
3764.55781	0.16322
3762.62925	0.16452
3760.70068	0.16740
3758.77212	0.17204
3756.84355	0.17592
3754.91499	0.17844
3752.98643	0.18232
3751.05786	0.18925
3749.12930	0.19570
3747.20073	0.19745
3745.27217	0.19877
3743.34360	0.20181
3741.41504	0.20514
3739.48647	0.20901
3737.55791	0.21523
3735.62935	0.22459
3733.70078	0.23295
3731.77222	0.23512
3729.84365	0.23558
3727.91509	0.23849
3725.98652	0.24436
3724.05796	0.25163
3722.12939	0.25820
3720.20083	0.26360
3718.27227	0.26824
3716.34370	0.27312
3714.41514	0.27976
3712.48657	0.29116
3710.55801	0.30846
3708.62944	0.32317
3706.70088	0.33250
3704.77231	0.34279
3702.84375	0.35669
3700.91519	0.37452
3698.98662	0.39295
3697.05806	0.41008
3695.12949	0.42849
3693.20093	0.44874
3691.27236	0.47216
3689.34380	0.50268
3687.41523	0.53690
3685.48667	0.56421
3683.55811	0.58812
3681.62954	0.61552
3679.70098	0.64819
3677.77241	0.68369
3675.84385	0.72569
3673.91528	0.78078
3671.98672	0.82410
3670.05815	0.86268
3668.12959	0.91561
3666.20103	0.96239
3664.27246	1.00193
3662.34390	1.04570
3660.41533	1.09345
3658.48677	1.14074
3656.55820	1.19143
3654.62964	1.24773
3652.70107	1.29471
3650.77251	1.33710
3648.84395	1.39840
3646.91538	1.47109
3644.98682	1.51882
3643.05825	1.55463
3641.12969	1.59357
3639.20112	1.63832
3637.27256	1.68437
3635.34399	1.73009
3633.41543	1.77635
3631.48687	1.81992
3629.55830	1.86381
3627.62974	1.91948
3625.70117	1.96953
3623.77261	2.00308
3621.84404	2.03569
3619.91548	2.07330
3617.98691	2.11919
3616.05835	2.16300
3614.12979	2.19999
3612.20122	2.24068
3610.27266	2.28194
3608.34409	2.32285
3606.41553	2.36629
3604.48696	2.40558
3602.55840	2.44073
3600.62983	2.48089
3598.70127	2.52417
3596.77271	2.56457
3594.84414	2.60579
3592.91558	2.64737
3590.98701	2.68496
3589.05845	2.72166
3587.12988	2.76849
3585.20132	2.81908
3583.27275	2.85829
3581.34419	2.89319
3579.41562	2.93229
3577.48706	2.97590
3575.55850	3.01984
3573.62993	3.06354
3571.70137	3.10621
3569.77280	3.14703
3567.84424	3.19093
3565.91567	3.24719
3563.98711	3.30102
3562.05854	3.34035
3560.12998	3.37824
3558.20142	3.42197
3556.27285	3.46884
3554.34429	3.51401
3552.41572	3.56076
3550.48716	3.60965
3548.55859	3.65557
3546.63003	3.69936
3544.70146	3.74663
3542.77290	3.79673
3540.84434	3.84549
3538.91577	3.89327
3536.98721	3.94166
3535.05864	3.99326
3533.13008	4.04291
3531.20151	4.08704
3529.27295	4.13165
3527.34438	4.18144
3525.41582	4.23165
3523.48726	4.27917
3521.55869	4.32996
3519.63013	4.38403
3517.70156	4.43553
3515.77300	4.48065
3513.84443	4.52191
3511.91587	4.56647
3509.98730	4.61938
3508.05874	4.67660
3506.13018	4.72899
3504.20161	4.77614
3502.27305	4.82292
3500.34448	4.86933
3498.41592	4.91541
3496.48735	4.96588
3494.55879	5.01988
3492.63022	5.07133
3490.70166	5.11677
3488.77310	5.15970
3486.84453	5.20484
3484.91597	5.25098
3482.98740	5.30335
3481.05884	5.36368
3479.13027	5.41625
3477.20171	5.45717
3475.27314	5.49699
3473.34458	5.54378
3471.41602	5.59465
3469.48745	5.64038
3467.55889	5.68477
3465.63032	5.73242
3463.70176	5.78651
3461.77319	5.84929
3459.84463	5.90729
3457.91606	5.95580
3455.98750	6.01020
3454.05894	6.05789
3452.13037	6.09275
3450.20181	6.14759
3448.27324	6.22225
3446.34468	6.28417
3444.41611	6.32413
3442.48755	6.36470
3440.55898	6.41024
3438.63042	6.45779
3436.70186	6.50957
3434.77329	6.55576
3432.84473	6.59949
3430.91616	6.65749
3428.98760	6.72715
3427.05903	6.77934
3425.13047	6.81861
3423.20190	6.87216
3421.27334	6.93832
3419.34478	6.99249
3417.41621	7.03278
3415.48765	7.06653
3413.55908	7.10225
3411.63052	7.16320
3409.70195	7.21950
3407.77339	7.24344
3405.84482	7.26126
3403.91626	7.29742
3401.98770	7.33091
3400.05913	7.35827
3398.13057	7.39162
3396.20200	7.42340
3394.27344	7.47147
3392.34487	7.52280
3390.41631	7.56742
3388.48774	7.61029
3386.55918	7.65519
3384.63062	7.69515
3382.70205	7.73518
3380.77349	7.80805
3378.84492	7.89109
3376.91636	7.92079
3374.98779	7.90333
3373.05923	7.92694
3371.13066	7.98133
3369.20210	8.02404
3367.27354	8.06665
3365.34497	8.08723
3363.41641	8.06582
3361.48784	8.04606
3359.55928	8.07530
3357.63071	8.14212
3355.70215	8.18689
3353.77358	8.14969
3351.84502	8.08101
3349.91646	8.03347
3347.98789	8.03482
3346.05933	8.08600
3344.13076	8.14045
3342.20220	8.14321
3340.27363	8.11651
3338.34507	8.17528
3336.41650	8.26972
3334.48794	8.28425
3332.55937	8.25644
3330.63081	8.25481
3328.70225	8.26123
3326.77368	8.26674
3324.84512	8.29367
3322.91655	8.30931
3320.98799	8.35868
3319.05942	8.47345
3317.13086	8.51590
3315.20229	8.41928
3313.27373	8.37666
3311.34517	8.42488
3309.41660	8.44993
3307.48804	8.48400
3305.55947	8.54382
3303.63091	8.57188
3301.70234	8.52791
3299.77378	8.44056
3297.84521	8.38578
3295.91665	8.44374
3293.98809	8.51900
3292.05952	8.46360
3290.13096	8.41309
3288.20239	8.46315
3286.27383	8.55949
3284.34526	8.65312
3282.41670	8.63412
3280.48813	8.46031
3278.55957	8.34236
3276.63101	8.39298
3274.70244	8.48248
3272.77388	8.45856
3270.84531	8.37573
3268.91675	8.31412
3266.98818	8.29417
3265.05962	8.36330
3263.13105	8.45578
3261.20249	8.47416
3259.27393	8.49560
3257.34536	8.62460
3255.41680	8.77903
3253.48823	8.82906
3251.55967	8.80444
3249.63110	8.72525
3247.70254	8.62933
3245.77397	8.54791
3243.84541	8.44815
3241.91685	8.28999
3239.98828	8.13469
3238.05972	8.11884
3236.13115	8.25136
3234.20259	8.39244
3232.27402	8.44752
3230.34546	8.39802
3228.41689	8.28523
3226.48833	8.24126
3224.55977	8.29986
3222.63120	8.37340
3220.70264	8.35217
3218.77407	8.24447
3216.84551	8.14931
3214.91694	8.08279
3212.98838	8.04684
3211.05981	8.04744
3209.13125	8.04971
3207.20269	8.03456
3205.27412	8.00684
3203.34556	7.95439
3201.41699	7.90425
3199.48843	7.92520
3197.55986	7.96475
3195.63130	7.92069
3193.70273	7.83440
3191.77417	7.75417
3189.84561	7.69672
3187.91704	7.68049
3185.98848	7.65826
3184.05991	7.57430
3182.13135	7.47185
3180.20278	7.40419
3178.27422	7.36711
3176.34565	7.35208
3174.41709	7.32573
3172.48853	7.26835
3170.55996	7.20206
3168.63140	7.12379
3166.70283	7.03793
3164.77427	6.97544
3162.84570	6.92649
3160.91714	6.86597
3158.98857	6.80506
3157.06001	6.73908
3155.13145	6.67342
3153.20288	6.63370
3151.27432	6.59814
3149.34575	6.52768
3147.41719	6.43150
3145.48862	6.34079
3143.56006	6.25609
3141.63149	6.17423
3139.70293	6.11617
3137.77437	6.07371
3135.84580	5.99857
3133.91724	5.89732
3131.98867	5.81743
3130.06011	5.75850
3128.13154	5.69663
3126.20298	5.62817
3124.27441	5.55536
3122.34585	5.47345
3120.41729	5.38507
3118.48872	5.30107
3116.56016	5.22651
3114.63159	5.15665
3112.70303	5.08850
3110.77446	5.01992
3108.84590	4.95178
3106.91733	4.89093
3104.98877	4.83000
3103.06021	4.75961
3101.13164	4.68357
3099.20308	4.61212
3097.27451	4.54714
3095.34595	4.47916
3093.41738	4.41174
3091.48882	4.35052
3089.56025	4.28701
3087.63169	4.22057
3085.70312	4.15835
3083.77456	4.09595
3081.84600	4.02892
3079.91743	3.96422
3077.98887	3.90522
3076.06030	3.84664
3074.13174	3.78719
3072.20317	3.73123
3070.27461	3.67809
3068.34604	3.62242
3066.41748	3.56334
3064.48892	3.50548
3062.56035	3.45099
3060.63179	3.39675
3058.70322	3.34183
3056.77466	3.28823
3054.84609	3.23535
3052.91753	3.18194
3050.98896	3.12898
3049.06040	3.07724
3047.13184	3.02731
3045.20327	2.97896
3043.27471	2.93076
3041.34614	2.88289
3039.41758	2.83618
3037.48901	2.78940
3035.56045	2.74148
3033.63188	2.69415
3031.70332	2.64871
3029.77476	2.60436
3027.84619	2.56072
3025.91763	2.51767
3023.98906	2.47454
3022.06050	2.43147
3020.13193	2.38942
3018.20337	2.34859
3016.27480	2.30859
3014.34624	2.26929
3012.41768	2.23068
3010.48911	2.19249
3008.56055	2.15471
3006.63198	2.11763
3004.70342	2.08135
3002.77485	2.04573
3000.84629	2.01028
2998.91772	1.97530
2996.98916	1.94205
2995.06060	1.91034
2993.13203	1.87873
2991.20347	1.84695
2989.27490	1.81592
2987.34634	1.78600
2985.41777	1.75697
2983.48921	1.72857
2981.56064	1.70027
2979.63208	1.67211
2977.70352	1.64473
2975.77495	1.61750
2973.84639	1.59007
2971.91782	1.56345
2969.98926	1.53741
2968.06069	1.51115
2966.13213	1.48509
2964.20356	1.45920
2962.27500	1.43310
2960.34644	1.40726
2958.41787	1.38206
2956.48931	1.35714
2954.56074	1.33278
2952.63218	1.30986
2950.70361	1.28800
2948.77505	1.26589
2946.84648	1.24372
2944.91792	1.22191
2942.98936	1.19930
2941.06079	1.17579
2939.13223	1.15246
2937.20366	1.12915
2935.27510	1.10531
2933.34653	1.08088
2931.41797	1.05586
2929.48940	1.03085
2927.56084	1.00645
2925.63228	0.98265
2923.70371	0.95958
2921.77515	0.93785
2919.84658	0.91806
2917.91802	0.90058
2915.98945	0.88654
2914.06089	0.87696
2912.13232	0.87040
2910.20376	0.86399
2908.27520	0.85568
2906.34663	0.84522
2904.41807	0.83367
2902.48950	0.82198
2900.56094	0.81024
2898.63237	0.79845
2896.70381	0.78676
2894.77524	0.77523
2892.84668	0.76406
2890.91812	0.75315
2888.98955	0.74246
2887.06099	0.73204
2885.13242	0.72193
2883.20386	0.71243
2881.27529	0.70322
2879.34673	0.69352
2877.41816	0.68338
2875.48960	0.67317
2873.56104	0.66258
2871.63247	0.65124
2869.70391	0.63943
2867.77534	0.62739
2865.84678	0.61498
2863.91821	0.60232
2861.98965	0.58914
2860.06108	0.57491
2858.13252	0.56010
2856.20396	0.54522
2854.27539	0.53031
2852.34683	0.51616
2850.41826	0.50462
2848.48970	0.49794
2846.56113	0.49682
2844.63257	0.49826
2842.70400	0.49864
2840.77544	0.49692
2838.84687	0.49366
2836.91831	0.48952
2834.98975	0.48480
2833.06118	0.47964
2831.13262	0.47419
2829.20405	0.46863
2827.27549	0.46289
2825.34692	0.45689
2823.41836	0.45092
2821.48979	0.44501
2819.56123	0.43905
2817.63267	0.43321
2815.70410	0.42759
2813.77554	0.42206
2811.84697	0.41659
2809.91841	0.41119
2807.98984	0.40594
2806.06128	0.40074
2804.13271	0.39539
2802.20415	0.39005
2800.27559	0.38484
2798.34702	0.37967
2796.41846	0.37455
2794.48989	0.36964
2792.56133	0.36512
2790.63276	0.36081
2788.70420	0.35636
2786.77563	0.35180
2784.84707	0.34731
2782.91851	0.34301
2780.98994	0.33897
2779.06138	0.33517
2777.13281	0.33144
2775.20425	0.32753
2773.27568	0.32336
2771.34712	0.31910
2769.41855	0.31516
2767.48999	0.31156
2765.56143	0.30810
2763.63286	0.30472
2761.70430	0.30130
2759.77573	0.29778
2757.84717	0.29438
2755.91860	0.29128
2753.99004	0.28829
2752.06147	0.28522
2750.13291	0.28211
2748.20435	0.27912
2746.27578	0.27623
2744.34722	0.27329
2742.41865	0.27029
2740.49009	0.26744
2738.56152	0.26501
2736.63296	0.26282
2734.70439	0.26037
2732.77583	0.25763
2730.84727	0.25501
2728.91870	0.25254
2726.99014	0.25013
2725.06157	0.24785
2723.13301	0.24583
2721.20444	0.24405
2719.27588	0.24212
2717.34731	0.23982
2715.41875	0.23746
2713.49019	0.23539
2711.56162	0.23354
2709.63306	0.23167
2707.70449	0.22983
2705.77593	0.22823
2703.84736	0.22683
2701.91880	0.22534
2699.99023	0.22366
2698.06167	0.22203
2696.13311	0.22064
2694.20454	0.21926
2692.27598	0.21766
2690.34741	0.21604
2688.41885	0.21470
2686.49028	0.21349
2684.56172	0.21218
2682.63315	0.21092
2680.70459	0.20983
2678.77603	0.20867
2676.84746	0.20732
2674.91890	0.20595
2672.99033	0.20467
2671.06177	0.20349
2669.13320	0.20242
2667.20464	0.20154
2665.27607	0.20075
2663.34751	0.19982
2661.41895	0.19876
2659.49038	0.19773
2657.56182	0.19684
2655.63325	0.19604
2653.70469	0.19526
2651.77612	0.19449
2649.84756	0.19375
2647.91899	0.19300
2645.99043	0.19231
2644.06187	0.19171
2642.13330	0.19109
2640.20474	0.19055
2638.27617	0.19015
2636.34761	0.18966
2634.41904	0.18912
2632.49048	0.18869
2630.56191	0.18836
2628.63335	0.18802
2626.70479	0.18759
2624.77622	0.18702
2622.84766	0.18644
2620.91909	0.18601
2618.99053	0.18585
2617.06196	0.18578
2615.13340	0.18552
2613.20483	0.18513
2611.27627	0.18487
2609.34771	0.18473
2607.41914	0.18463
2605.49058	0.18457
2603.56201	0.18459
2601.63345	0.18469
2599.70488	0.18470
2597.77632	0.18459
2595.84775	0.18448
2593.91919	0.18441
2591.99062	0.18450
2590.06206	0.18481
2588.13350	0.18507
2586.20493	0.18516
2584.27637	0.18527
2582.34780	0.18540
2580.41924	0.18550
2578.49067	0.18577
2576.56211	0.18622
2574.63354	0.18657
2572.70498	0.18685
2570.77642	0.18715
2568.84785	0.18741
2566.91929	0.18773
2564.99072	0.18828
2563.06216	0.18880
2561.13359	0.18907
2559.20503	0.18940
2557.27646	0.18991
2555.34790	0.19047
2553.41934	0.19104
2551.49077	0.19159
2549.56221	0.19206
2547.63364	0.19250
2545.70508	0.19297
2543.77651	0.19344
2541.84795	0.19389
2539.91938	0.19446
2537.99082	0.19525
2536.06226	0.19602
2534.13369	0.19660
2532.20513	0.19727
2530.27656	0.19802
2528.34800	0.19862
2526.41943	0.19919
2524.49087	0.19991
2522.56230	0.20071
2520.63374	0.20159
2518.70518	0.20244
2516.77661	0.20306
2514.84805	0.20356
2512.91948	0.20414
2510.99092	0.20489
2509.06235	0.20576
2507.13379	0.20666
2505.20522	0.20751
2503.27666	0.20831
2501.34810	0.20910
2499.41953	0.20980
2497.49097	0.21051
2495.56240	0.21136
2493.63384	0.21231
2491.70527	0.21324
2489.77671	0.21409
2487.84814	0.21490
2485.91958	0.21577
2483.99102	0.21664
2482.06245	0.21744
2480.13389	0.21818
2478.20532	0.21893
2476.27676	0.21975
2474.34819	0.22067
2472.41963	0.22161
2470.49106	0.22256
2468.56250	0.22350
2466.63394	0.22436
2464.70537	0.22521
2462.77681	0.22609
2460.84824	0.22710
2458.91968	0.22819
2456.99111	0.22919
2455.06255	0.23010
2453.13398	0.23104
2451.20542	0.23199
2449.27686	0.23289
2447.34829	0.23378
2445.41973	0.23469
2443.49116	0.23566
2441.56260	0.23667
2439.63403	0.23763
2437.70547	0.23859
2435.77690	0.23973
2433.84834	0.24097
2431.91978	0.24198
2429.99121	0.24285
2428.06265	0.24377
2426.13408	0.24465
2424.20552	0.24556
2422.27695	0.24676
2420.34839	0.24806
2418.41982	0.24919
2416.49126	0.25028
2414.56270	0.25144
2412.63413	0.25267
2410.70557	0.25390
2408.77700	0.25503
2406.84844	0.25607
2404.91987	0.25717
2402.99131	0.25844
2401.06274	0.25979
2399.13418	0.26107
2397.20562	0.26227
2395.27705	0.26342
2393.34849	0.26453
2391.41992	0.26589
2389.49136	0.26758
2387.56279	0.26974
2385.63423	0.27293
2383.70566	0.27757
2381.77710	0.28358
2379.84854	0.29076
2377.91997	0.29908
2375.99141	0.30857
2374.06284	0.31956
2372.13428	0.33238
2370.20571	0.34651
2368.27715	0.36058
2366.34858	0.37322
2364.42002	0.38347
2362.49146	0.39200
2360.56289	0.39920
2358.63433	0.40185
2356.70576	0.39737
2354.77720	0.38736
2352.84863	0.37442
2350.92007	0.36147
2348.99150	0.35375
2347.06294	0.35436
2345.13437	0.36374
2343.20581	0.37691
2341.27725	0.38449
2339.34868	0.38549
2337.42012	0.38452
2335.49155	0.38401
2333.56299	0.38379
2331.63442	0.38379
2329.70586	0.38341
2327.77729	0.38187
2325.84873	0.37931
2323.92017	0.37638
2321.99160	0.37323
2320.06304	0.36957
2318.13447	0.36562
2316.20591	0.36227
2314.27734	0.36027
2312.34878	0.35955
2310.42021	0.35916
2308.49165	0.35811
2306.56309	0.35632
2304.63452	0.35465
2302.70596	0.35384
2300.77739	0.35379
2298.84883	0.35403
2296.92026	0.35450
2294.99170	0.35514
2293.06313	0.35567
2291.13457	0.35603
2289.20601	0.35637
2287.27744	0.35682
2285.34888	0.35756
2283.42031	0.35877
2281.49175	0.36048
2279.56318	0.36265
2277.63462	0.36509
2275.70605	0.36760
2273.77749	0.36997
2271.84893	0.37210
2269.92036	0.37408
2267.99180	0.37604
2266.06323	0.37802
2264.13467	0.37997
2262.20610	0.38189
2260.27754	0.38373
2258.34897	0.38555
2256.42041	0.38744
2254.49185	0.38940
2252.56328	0.39145
2250.63472	0.39350
2248.70615	0.39551
2246.77759	0.39755
2244.84902	0.39967
2242.92046	0.40185
2240.99189	0.40408
2239.06333	0.40627
2237.13477	0.40838
2235.20620	0.41049
2233.27764	0.41266
2231.34907	0.41484
2229.42051	0.41697
2227.49194	0.41914
2225.56338	0.42137
2223.63481	0.42357
2221.70625	0.42575
2219.77769	0.42795
2217.84912	0.43016
2215.92056	0.43234
2213.99199	0.43449
2212.06343	0.43668
2210.13486	0.43888
2208.20630	0.44104
2206.27773	0.44313
2204.34917	0.44516
2202.42061	0.44718
2200.49204	0.44919
2198.56348	0.45110
2196.63491	0.45294
2194.70635	0.45488
2192.77778	0.45686
2190.84922	0.45881
2188.92065	0.46076
2186.99209	0.46261
2185.06353	0.46431
2183.13496	0.46595
2181.20640	0.46766
2179.27783	0.46944
2177.34927	0.47113
2175.42070	0.47265
2173.49214	0.47407
2171.56357	0.47546
2169.63501	0.47683
2167.70645	0.47808
2165.77788	0.47927
2163.84932	0.48053
2161.92075	0.48175
2159.99219	0.48282
2158.06362	0.48385
2156.13506	0.48490
2154.20649	0.48584
2152.27793	0.48662
2150.34937	0.48727
2148.42080	0.48782
2146.49224	0.48831
2144.56367	0.48878
2142.63511	0.48920
2140.70654	0.48951
2138.77798	0.48973
2136.84941	0.48994
2134.92085	0.49012
2132.99229	0.49021
2131.06372	0.49021
2129.13516	0.49008
2127.20659	0.48977
2125.27803	0.48940
2123.34946	0.48896
2121.42090	0.48841
2119.49233	0.48779
2117.56377	0.48713
2115.63521	0.48642
2113.70664	0.48567
2111.77808	0.48477
2109.84951	0.48371
2107.92095	0.48266
2105.99238	0.48163
2104.06382	0.48050
2102.13525	0.47922
2100.20669	0.47783
2098.27812	0.47641
2096.34956	0.47492
2094.42100	0.47331
2092.49243	0.47165
2090.56387	0.47004
2088.63530	0.46841
2086.70674	0.46665
2084.77817	0.46471
2082.84961	0.46272
2080.92104	0.46070
2078.99248	0.45862
2077.06392	0.45646
2075.13535	0.45425
2073.20679	0.45203
2071.27822	0.44977
2069.34966	0.44742
2067.42109	0.44513
2065.49253	0.44296
2063.56396	0.44060
2061.63540	0.43805
2059.70684	0.43544
2057.77827	0.43278
2055.84971	0.43013
2053.92114	0.42748
2051.99258	0.42481
2050.06401	0.42219
2048.13545	0.41964
2046.20688	0.41715
2044.27832	0.41460
2042.34976	0.41187
2040.42119	0.40896
2038.49263	0.40600
2036.56406	0.40311
2034.63550	0.40030
2032.70693	0.39754
2030.77837	0.39472
2028.84980	0.39182
2026.92124	0.38897
2024.99268	0.38620
2023.06411	0.38351
2021.13555	0.38087
2019.20698	0.37832
2017.27842	0.37566
2015.34985	0.37265
2013.42129	0.36951
2011.49272	0.36654
2009.56416	0.36377
2007.63560	0.36103
2005.70703	0.35822
2003.77847	0.35541
2001.84990	0.35267
1999.92134	0.34997
1997.99277	0.34735
1996.06421	0.34485
1994.13564	0.34256
1992.20708	0.34029
1990.27852	0.33761
1988.34995	0.33479
1986.42139	0.33210
1984.49282	0.32950
1982.56426	0.32698
1980.63569	0.32446
1978.70713	0.32198
1976.77856	0.31961
1974.85000	0.31739
1972.92144	0.31522
1970.99287	0.31315
1969.06431	0.31133
1967.13574	0.30951
1965.20718	0.30724
1963.27861	0.30485
1961.35005	0.30271
1959.42148	0.30074
1957.49292	0.29892
1955.56436	0.29719
1953.63579	0.29539
1951.70723	0.29348
1949.77866	0.29162
1947.85010	0.29002
1945.92153	0.28883
1943.99297	0.28784
1942.06440	0.28637
1940.13584	0.28433
1938.20728	0.28244
1936.27871	0.28095
1934.35015	0.27960
1932.42158	0.27829
1930.49302	0.27701
1928.56445	0.27583
1926.63589	0.27484
1924.70732	0.27420
1922.77876	0.27359
1920.85020	0.27256
1918.92163	0.27152
1916.99307	0.27053
1915.06450	0.26923
1913.13594	0.26799
1911.20737	0.26724
1909.27881	0.26674
1907.35024	0.26603
1905.42168	0.26519
1903.49312	0.26444
1901.56455	0.26373
1899.63599	0.26309
1897.70742	0.26270
1895.77886	0.26248
1893.85029	0.26212
1891.92173	0.26176
1889.99316	0.26173
1888.06460	0.26141
1886.13604	0.26073
1884.20747	0.26030
1882.27891	0.26002
1880.35034	0.25972
1878.42178	0.25955
1876.49321	0.25953
1874.56465	0.25954
1872.63608	0.25981
1870.70752	0.26071
1868.77896	0.26214
1866.85039	0.26244
1864.92183	0.26141
1862.99326	0.26066
1861.06470	0.26063
1859.13613	0.26095
1857.20757	0.26122
1855.27900	0.26149
1853.35044	0.26183
1851.42187	0.26238
1849.49331	0.26329
1847.56475	0.26457
1845.63618	0.26610
1843.70762	0.26733
1841.77905	0.26739
1839.85049	0.26712
1837.92192	0.26766
1835.99336	0.26859
1834.06479	0.26957
1832.13623	0.27094
1830.20767	0.27306
1828.27910	0.27476
1826.35054	0.27552
1824.42197	0.27642
1822.49341	0.27716
1820.56484	0.27788
1818.63628	0.27902
1816.70771	0.28055
1814.77915	0.28220
1812.85059	0.28424
1810.92202	0.28669
1808.99346	0.28880
1807.06489	0.29047
1805.13633	0.29221
1803.20776	0.29462
1801.27920	0.29760
1799.35063	0.30052
1797.42207	0.30287
1795.49351	0.30543
1793.56494	0.30879
1791.63638	0.31261
1789.70781	0.31534
1787.77925	0.31719
1785.85068	0.32006
1783.92212	0.32386
1781.99355	0.32802
1780.06499	0.33231
1778.13643	0.33648
1776.20786	0.34061
1774.27930	0.34561
1772.35073	0.35236
1770.42217	0.35867
1768.49360	0.36295
1766.56504	0.36696
1764.63647	0.37157
1762.70791	0.37743
1760.77935	0.38490
1758.85078	0.39138
1756.92222	0.39765
1754.99365	0.40441
1753.06509	0.41064
1751.13652	0.41868
1749.20796	0.42911
1747.27939	0.43895
1745.35083	0.44732
1743.42227	0.45651
1741.49370	0.46708
1739.56514	0.48003
1737.63657	0.49328
1735.70801	0.50511
1733.77944	0.52299
1731.85088	0.54357
1729.92231	0.55894
1727.99375	0.57436
1726.06519	0.59109
1724.13662	0.60985
1722.20806	0.63031
1720.27949	0.64931
1718.35093	0.67208
1716.42236	0.70600
1714.49380	0.73675
1712.56523	0.76025
1710.63667	0.78334
1708.70811	0.80920
1706.77954	0.83929
1704.85098	0.87529
1702.92241	0.90695
1700.99385	0.93822
1699.06528	0.98637
1697.13672	1.03087
1695.20815	1.07525
1693.27959	1.11778
1691.35103	1.15245
1689.42246	1.19361
1687.49390	1.23775
1685.56533	1.28035
1683.63677	1.34653
1681.70820	1.41458
1679.77964	1.45637
1677.85107	1.49629
1675.92251	1.54336
1673.99395	1.60323
1672.06538	1.65638
1670.13682	1.70843
1668.20825	1.77716
1666.27969	1.83222
1664.35112	1.87899
1662.42256	1.93907
1660.49399	2.00848
1658.56543	2.06248
1656.63687	2.10589
1654.70830	2.14526
1652.77974	2.20588
1650.85117	2.26262
1648.92261	2.28343
1646.99404	2.31152
1645.06548	2.33761
1643.13691	2.35212
1641.20835	2.35903
1639.27979	2.36651
1637.35122	2.37386
1635.42266	2.37669
1633.49409	2.36547
1631.56553	2.34722
1629.63696	2.32877
1627.70840	2.29928
1625.77983	2.26536
1623.85127	2.22237
1621.92271	2.16912
1619.99414	2.12282
1618.06558	2.07846
1616.13701	2.01277
1614.20845	1.94484
1612.27988	1.89415
1610.35132	1.84180
1608.42275	1.78483
1606.49419	1.72861
1604.56562	1.67725
1602.63706	1.62766
1600.70850	1.57928
1598.77993	1.53533
1596.85137	1.49445
1594.92280	1.45432
1592.99424	1.41521
1591.06567	1.37993
1589.13711	1.34733
1587.20854	1.31699
1585.27998	1.28907
1583.35142	1.26351
1581.42285	1.24055
1579.49429	1.22122
1577.56572	1.20449
1575.63716	1.18361
1573.70859	1.16461
1571.78003	1.15311
1569.85146	1.14230
1567.92290	1.12983
1565.99434	1.12022
1564.06577	1.11360
1562.13721	1.10938
1560.20864	1.10831
1558.28008	1.10991
1556.35151	1.11004
1554.42295	1.10915
1552.49438	1.10871
1550.56582	1.10701
1548.63726	1.10296
1546.70869	1.09756
1544.78013	1.09066
1542.85156	1.08129
1540.92300	1.06539
1538.99443	1.03522
1537.06587	1.01269
1535.13730	0.99895
1533.20874	0.98083
1531.28018	0.96069
1529.35161	0.94624
1527.42305	0.93335
1525.49448	0.92021
1523.56592	0.90925
1521.63735	0.89890
1519.70879	0.88739
1517.78022	0.87727
1515.85166	0.86526
1513.92310	0.85230
1511.99453	0.84179
1510.06597	0.83390
1508.13740	0.82744
1506.20884	0.81299
1504.28027	0.79756
1502.35171	0.78944
1500.42314	0.78335
1498.49458	0.77745
1496.56602	0.77026
1494.63745	0.76228
1492.70889	0.75629
1490.78032	0.75192
1488.85176	0.74663
1486.92319	0.74019
1484.99463	0.73462
1483.06606	0.73065
1481.13750	0.72774
1479.20894	0.72547
1477.28037	0.72419
1475.35181	0.72402
1473.42324	0.72425
1471.49468	0.72224
1469.56611	0.71816
1467.63755	0.71499
1465.70898	0.71330
1463.78042	0.71235
1461.85186	0.71203
1459.92329	0.71323
1457.99473	0.71594
1456.06616	0.71625
1454.13760	0.71259
1452.20903	0.70935
1450.28047	0.70689
1448.35190	0.70464
1446.42334	0.70193
1444.49478	0.69904
1442.56621	0.69644
1440.63765	0.69405
1438.70908	0.69195
1436.78052	0.68940
1434.85195	0.68578
1432.92339	0.68271
1430.99482	0.68097
1429.06626	0.68010
1427.13770	0.67974
1425.20913	0.68015
1423.28057	0.68113
1421.35200	0.68190
1419.42344	0.68246
1417.49487	0.68206
1415.56631	0.68026
1413.63774	0.67870
1411.70918	0.67807
1409.78062	0.67820
1407.85205	0.67903
1405.92349	0.68065
1403.99492	0.68197
1402.06636	0.68205
1400.13779	0.68173
1398.20923	0.68092
1396.28066	0.67883
1394.35210	0.67506
1392.42354	0.67027
1390.49497	0.66608
1388.56641	0.66258
1386.63784	0.65840
1384.70928	0.65325
1382.78071	0.64835
1380.85215	0.64406
1378.92358	0.64043
1376.99502	0.63797
1375.06646	0.63680
1373.13789	0.63583
1371.20933	0.63467
1369.28076	0.63390
1367.35220	0.63312
1365.42363	0.63203
1363.49507	0.63100
1361.56650	0.62961
1359.63794	0.62760
1357.70937	0.62579
1355.78081	0.62436
1353.85225	0.62302
1351.92368	0.62172
1349.99512	0.62064
1348.06655	0.61976
1346.13799	0.61885
1344.20942	0.61797
1342.28086	0.61741
1340.35229	0.61722
1338.42373	0.61668
1336.49517	0.61547
1334.56660	0.61442
1332.63804	0.61399
1330.70947	0.61394
1328.78091	0.61402
1326.85234	0.61428
1324.92378	0.61476
1322.99521	0.61538
1321.06665	0.61607
1319.13809	0.61676
1317.20952	0.61709
1315.28096	0.61690
1313.35239	0.61639
1311.42383	0.61557
1309.49526	0.61458
1307.56670	0.61375
1305.63813	0.61308
1303.70957	0.61230
1301.78101	0.61128
1299.85244	0.61013
1297.92388	0.60906
1295.99531	0.60803
1294.06675	0.60680
1292.13818	0.60542
1290.20962	0.60409
1288.28105	0.60275
1286.35249	0.60133
1284.42393	0.60000
1282.49536	0.59884
1280.56680	0.59758
1278.63823	0.59606
1276.70967	0.59464
1274.78110	0.59355
1272.85254	0.59255
1270.92397	0.59160
1268.99541	0.59080
1267.06685	0.58999
1265.13828	0.58906
1263.20972	0.58806
1261.28115	0.58717
1259.35259	0.58643
1257.42402	0.58572
1255.49546	0.58526
1253.56689	0.58527
1251.63833	0.58545
1249.70977	0.58552
1247.78120	0.58553
1245.85264	0.58544
1243.92407	0.58496
1241.99551	0.58399
1240.06694	0.58268
1238.13838	0.58112
1236.20981	0.57916
1234.28125	0.57697
1232.35269	0.57482
1230.42412	0.57262
1228.49556	0.57050
1226.56699	0.56868
1224.63843	0.56686
1222.70986	0.56488
1220.78130	0.56313
1218.85273	0.56169
1216.92417	0.56029
1214.99561	0.55894
1213.06704	0.55773
1211.13848	0.55669
1209.20991	0.55589
1207.28135	0.55523
1205.35278	0.55449
1203.42422	0.55363
1201.49565	0.55269
1199.56709	0.55162
1197.63853	0.55055
1195.70996	0.54961
1193.78140	0.54878
1191.85283	0.54799
1189.92427	0.54728
1187.99570	0.54658
1186.06714	0.54596
1184.13857	0.54579
1182.21001	0.54616
1180.28145	0.54682
1178.35288	0.54772
1176.42432	0.54890
1174.49575	0.55019
1172.56719	0.55129
1170.63862	0.55190
1168.71006	0.55214
1166.78149	0.55241
1164.85293	0.55289
1162.92437	0.55346
1160.99580	0.55391
1159.06724	0.55407
1157.13867	0.55389
1155.21011	0.55341
1153.28154	0.55254
1151.35298	0.55098
1149.42441	0.54872
1147.49585	0.54607
1145.56729	0.54315
1143.63872	0.54014
1141.71016	0.53753
1139.78159	0.53567
1137.85303	0.53453
1135.92446	0.53391
1133.99590	0.53357
1132.06733	0.53343
1130.13877	0.53361
1128.21021	0.53386
1126.28164	0.53372
1124.35308	0.53327
1122.42451	0.53289
1120.49595	0.53287
1118.56738	0.53317
1116.63882	0.53360
1114.71025	0.53410
1112.78169	0.53481
1110.85312	0.53574
1108.92456	0.53667
1106.99600	0.53748
1105.06743	0.53814
1103.13887	0.53884
1101.21030	0.53981
1099.28174	0.54123
1097.35317	0.54322
1095.42461	0.54585
1093.49604	0.54939
1091.56748	0.55409
1089.63892	0.56016
1087.71035	0.56784
1085.78179	0.57680
1083.85322	0.58578
1081.92466	0.59343
1079.99609	0.59879
1078.06753	0.60133
1076.13896	0.60093
1074.21040	0.59771
1072.28184	0.59217
1070.35327	0.58519
1068.42471	0.57786
1066.49614	0.57102
1064.56758	0.56477
1062.63901	0.55916
1060.71045	0.55449
1058.78188	0.55067
1056.85332	0.54709
1054.92476	0.54349
1052.99619	0.54035
1051.06763	0.53803
1049.13906	0.53643
1047.21050	0.53567
1045.28193	0.53569
1043.35337	0.53593
1041.42480	0.53613
1039.49624	0.53624
1037.56768	0.53613
1035.63911	0.53574
1033.71055	0.53504
1031.78198	0.53390
1029.85342	0.53227
1027.92485	0.53048
1025.99629	0.52874
1024.06772	0.52706
1022.13916	0.52577
1020.21060	0.52516
1018.28203	0.52502
1016.35347	0.52483
1014.42490	0.52433
1012.49634	0.52372
1010.56777	0.52323
1008.63921	0.52288
1006.71064	0.52288
1004.78208	0.52370
1002.85352	0.52559
1000.92495	0.52824
998.99639	0.53145
997.06782	0.53525
995.13926	0.53946
993.21069	0.54356
991.28213	0.54687
989.35356	0.54889
987.42500	0.54959
985.49644	0.54932
983.56787	0.54873
981.63931	0.54852
979.71074	0.54917
977.78218	0.55054
975.85361	0.55231
973.92505	0.55460
971.99648	0.55750
970.06792	0.56085
968.13936	0.56447
966.21079	0.56823
964.28223	0.57232
962.35366	0.57686
960.42510	0.58174
958.49653	0.58702
956.56797	0.59271
954.63940	0.59859
952.71084	0.60458
950.78228	0.61077
948.85371	0.61709
946.92515	0.62338
944.99658	0.62958
943.06802	0.63586
941.13945	0.64245
939.21089	0.64891
937.28232	0.65450
935.35376	0.65948
933.42520	0.66463
931.49663	0.67016
929.56807	0.67580
927.63950	0.68159
925.71094	0.68761
923.78237	0.69370
921.85381	0.70006
919.92524	0.70720
917.99668	0.71483
916.06812	0.72207
914.13955	0.72894
912.21099	0.73619
910.28242	0.74389
908.35386	0.75191
906.42529	0.76050
904.49673	0.76967
902.56816	0.77900
900.63960	0.78840
898.71104	0.79794
896.78247	0.80707
894.85391	0.81653
892.92534	0.82752
890.99678	0.83906
889.06821	0.85007
887.13965	0.86063
885.21108	0.87095
883.28252	0.88111
881.35396	0.89126
879.42539	0.90257
877.49683	0.91542
875.56826	0.92812
873.63970	0.94009
871.71113	0.95219
869.78257	0.96409
867.85400	0.97551
865.92544	0.98647
863.99687	0.99707
862.06831	1.00840
860.13975	1.02048
858.21118	1.03217
856.28262	1.04383
854.35405	1.05638
852.42549	1.06780
850.49692	1.07753
848.56836	1.08849
846.63979	1.09966
844.71123	1.10947
842.78267	1.12087
840.85410	1.13381
838.92554	1.14554
836.99697	1.15747
835.06841	1.17014
833.13984	1.18135
831.21128	1.19110
829.28271	1.20231
827.35415	1.21681
825.42559	1.23246
823.49702	1.24705
821.56846	1.25564
819.63989	1.25953
817.71133	1.26764
815.78276	1.28052
813.85420	1.29484
811.92563	1.30770
809.99707	1.31226
808.06851	1.31007
806.13994	1.31322
804.21138	1.32176
802.28281	1.33862
800.35425	1.36623
798.42568	1.38173
796.49712	1.38592
794.56855	1.41346
792.63999	1.46653
790.71143	1.49341
788.78286	1.45877
786.85430	1.41032
784.92573	1.41867
782.99717	1.49156
781.06860	1.56756
779.14004	1.58501
777.21147	1.57029
775.28291	1.61218
773.35435	1.68051
771.42578	1.69888
769.49722	1.73775
767.56865	1.71579
765.64009	1.71935
763.71152	1.92753
761.78296	2.02839
759.85439	1.94620
757.92583	1.84226
755.99727	1.69296
754.06870	1.72397
752.14014	1.90965
750.21157	4.50127
748.28301	4.48970
746.35444	1.65354
744.42588	1.24424
742.49731	1.10038
740.56875	1.11091
738.64019	1.19888
736.71162	1.13331
734.78306	0.98955
732.85449	0.93444
730.92593	0.87905
728.99736	0.73440
727.06880	0.60557
725.14023	0.45239
723.21167	0.24248
721.28311	0.11786
719.35454	-0.04030
717.42598	-0.32182
715.49741	-0.29495
713.56885	-0.18882
711.64028	-0.16179
709.71172	-0.09068
707.78315	4.24670
705.85459	4.23513
703.92603	4.22356
701.99746	0.65207
700.06890	0.58307
698.14033	0.58856
696.21177	0.48408
694.28320	0.52817
692.35464	4.15413
690.42607	4.14256
688.49751	0.73350
686.56895	0.30537
684.64038	0.34697
682.71182	0.53462
680.78325	0.77073
678.85469	0.96062
676.92612	0.82529
674.99756	0.61269
673.06899	0.56510
671.14043	0.50669
669.21187	0.35441
667.28330	0.35206
665.35474	0.68791
663.42617	3.98056
661.49761	1.17360
659.56904	1.08050
657.64048	0.88573
655.71191	0.66487
653.78335	0.67611
651.85479	0.71803
649.92622	0.61408
647.99766	0.47982
646.06909	0.44075
644.14053	0.54526
642.21196	0.67564
640.28340	0.55269
638.35483	0.41833
636.42627	0.39222
634.49771	0.39678
632.56914	0.43702
630.64058	0.49101
628.71201	0.40760
626.78345	0.34110
624.85488	0.38949
622.92632	0.48086
620.99775	0.47608
619.06919	0.41740
617.14062	0.43801
615.21206	0.46297
613.28350	0.36379
611.35493	0.38338
609.42637	0.82107
607.49780	3.64499
605.56924	3.63342
603.64067	0.77319
601.71211	0.70787
599.78354	0.69031
597.85498	0.48871
595.92642	0.43020
593.99785	0.38125
592.06929	0.30862
590.14072	0.31735
588.21216	0.34936
586.28359	0.31557
584.35503	0.30833
582.42646	0.33057
580.49790	0.33807
578.56934	0.36505
576.64077	0.42268
574.71221	0.44473
572.78364	0.44780
570.85508	0.45695
568.92651	0.37392
566.99795	0.29884
565.06938	0.32276
563.14082	0.38989
561.21226	0.42701
559.28369	0.49728
557.35513	0.57799
555.42656	0.48746
553.49800	0.42693
551.56943	0.39473
549.64087	0.33396
547.71230	0.40845
545.78374	0.83313
543.85518	1.05291
541.92661	0.50993
539.99805	0.35928
538.06948	0.32301
536.14092	0.34242
534.21235	0.35490
532.28379	0.33980
530.35522	0.35290
528.42666	0.43690
526.49810	0.45803
524.56953	0.34906
522.64097	0.29425
520.71240	0.27799
518.78384	0.24533
516.85527	0.23551
514.92671	0.26062
512.99814	0.28325
511.06958	0.29953
509.14102	0.35771
507.21245	0.41460
505.28389	0.39416
503.35532	0.38111
501.42676	0.37890
499.49819	0.32933
