3997.91411	0.07521
3995.98555	0.07565
3994.05698	0.07608
3992.12842	0.07596
3990.19985	0.07564
3988.27129	0.07576
3986.34272	0.07619
3984.41416	0.07653
3982.48560	0.07686
3980.55703	0.07742
3978.62847	0.07797
3976.69990	0.07821
3974.77134	0.07816
3972.84277	0.07803
3970.91421	0.07798
3968.98564	0.07813
3967.05708	0.07836
3965.12852	0.07834
3963.19995	0.07821
3961.27139	0.07834
3959.34282	0.07862
3957.41426	0.07872
3955.48569	0.07868
3953.55713	0.07870
3951.62856	0.07888
3949.70000	0.07919
3947.77144	0.07955
3945.84287	0.07978
3943.91431	0.07957
3941.98574	0.07918
3940.05718	0.07904
3938.12861	0.07908
3936.20005	0.07929
3934.27148	0.07941
3932.34292	0.07912
3930.41436	0.07874
3928.48579	0.07861
3926.55723	0.07838
3924.62866	0.07824
3922.70010	0.07855
3920.77153	0.07873
3918.84297	0.07842
3916.91440	0.07827
3914.98584	0.07865
3913.05728	0.07891
3911.12871	0.07856
3909.20015	0.07801
3907.27158	0.07771
3905.34302	0.07760
3903.41445	0.07780
3901.48589	0.07825
3899.55732	0.07857
3897.62876	0.07891
3895.70020	0.07903
3893.77163	0.07866
3891.84307	0.07806
3889.91450	0.07765
3887.98594	0.07768
3886.05737	0.07817
3884.12881	0.07894
3882.20024	0.07923
3880.27168	0.07920
3878.34312	0.07939
3876.41455	0.07945
3874.48599	0.07935
3872.55742	0.07918
3870.62886	0.07876
3868.70029	0.07904
3866.77173	0.07993
3864.84316	0.08000
3862.91460	0.07983
3860.98604	0.08041
3859.05747	0.08099
3857.12891	0.08098
3855.20034	0.08050
3853.27178	0.08018
3851.34321	0.08129
3849.41465	0.08270
3847.48608	0.08351
3845.55752	0.08403
3843.62896	0.08429
3841.70039	0.08456
3839.77183	0.08550
3837.84326	0.08711
3835.91470	0.08777
3833.98613	0.08742
3832.05757	0.08799
3830.12900	0.08938
3828.20044	0.08986
3826.27187	0.08978
3824.34331	0.09060
3822.41475	0.09205
3820.48618	0.09363
3818.55762	0.09453
3816.62905	0.09463
3814.70049	0.09530
3812.77192	0.09639
3810.84336	0.09717
3808.91479	0.09797
3806.98623	0.09903
3805.05767	0.10030
3803.12910	0.10126
3801.20054	0.10227
3799.27197	0.10393
3797.34341	0.10549
3795.41484	0.10699
3793.48628	0.10832
3791.55771	0.10943
3789.62915	0.11061
3787.70059	0.11172
3785.77202	0.11300
3783.84346	0.11463
3781.91489	0.11603
3779.98633	0.11737
3778.05776	0.11929
3776.12920	0.12119
3774.20063	0.12287
3772.27207	0.12460
3770.34351	0.12627
3768.41494	0.12790
3766.48638	0.12950
3764.55781	0.13144
3762.62925	0.13341
3760.70068	0.13510
3758.77212	0.13744
3756.84355	0.14039
3754.91499	0.14270
3752.98643	0.14444
3751.05786	0.14662
3749.12930	0.14992
3747.20073	0.15273
3745.27217	0.15516
3743.34360	0.15909
3741.41504	0.16310
3739.48647	0.16586
3737.55791	0.16860
3735.62935	0.17248
3733.70078	0.17839
3731.77222	0.18484
3729.84365	0.19007
3727.91509	0.19437
3725.98652	0.19934
3724.05796	0.20576
3722.12939	0.21303
3720.20083	0.22091
3718.27227	0.22886
3716.34370	0.23653
3714.41514	0.24385
3712.48657	0.25199
3710.55801	0.26412
3708.62944	0.27923
3706.70088	0.29229
3704.77231	0.30391
3702.84375	0.31705
3700.91519	0.33477
3698.98662	0.35457
3697.05806	0.37259
3695.12949	0.39113
3693.20093	0.41071
3691.27236	0.43176
3689.34380	0.45990
3687.41523	0.49654
3685.48667	0.52883
3683.55811	0.55576
3681.62954	0.58411
3679.70098	0.61585
3677.77241	0.64865
3675.84385	0.68717
3673.91528	0.74115
3671.98672	0.78555
3670.05815	0.82477
3668.12959	0.88046
3666.20103	0.93134
3664.27246	0.97281
3662.34390	1.01684
3660.41533	1.06463
3658.48677	1.11134
3656.55820	1.15987
3654.62964	1.21421
3652.70107	1.25987
3650.77251	1.29814
3648.84395	1.35251
3646.91538	1.42509
3644.98682	1.47884
3643.05825	1.51817
3641.12969	1.55773
3639.20112	1.60186
3637.27256	1.64640
3635.34399	1.68976
3633.41543	1.73317
3631.48687	1.77266
3629.55830	1.81135
3627.62974	1.86515
3625.70117	1.91793
3623.77261	1.95259
3621.84404	1.98461
3619.91548	2.02159
3617.98691	2.06807
3616.05835	2.11307
3614.12979	2.14980
3612.20122	2.18950
3610.27266	2.22985
3608.34409	2.26933
3606.41553	2.31189
3604.48696	2.35175
3602.55840	2.38632
3600.62983	2.42372
3598.70127	2.46441
3596.77271	2.50280
3594.84414	2.54213
3592.91558	2.58455
3590.98701	2.62446
3589.05845	2.65997
3587.12988	2.70169
3585.20132	2.74959
3583.27275	2.79120
3581.34419	2.82973
3579.41562	2.87107
3577.48706	2.91391
3575.55850	2.95528
3573.62993	2.99668
3571.70137	3.03761
3569.77280	3.07740
3567.84424	3.12038
3565.91567	3.17501
3563.98711	3.22720
3562.05854	3.26647
3560.12998	3.30657
3558.20142	3.35157
3556.27285	3.39609
3554.34429	3.43855
3552.41572	3.48467
3550.48716	3.53348
3548.55859	3.57739
3546.63003	3.61756
3544.70146	3.66383
3542.77290	3.71676
3540.84434	3.76613
3538.91577	3.80992
3536.98721	3.85266
3535.05864	3.90020
3533.13008	3.95193
3531.20151	4.00132
3529.27295	4.04566
3527.34438	4.09260
3525.41582	4.14497
3523.48726	4.19685
3521.55869	4.24672
3519.63013	4.29360
3517.70156	4.33886
3515.77300	4.38378
3513.84443	4.42708
3511.91587	4.46986
3509.98730	4.51691
3508.05874	4.56864
3506.13018	4.61952
3504.20161	4.66579
3502.27305	4.71226
3500.34448	4.76578
3498.41592	4.82278
3496.48735	4.87310
3494.55879	4.91206
3492.63022	4.95129
3490.70166	4.99836
3488.77310	5.04950
3486.84453	5.10130
3484.91597	5.15085
3482.98740	5.19949
3481.05884	5.24982
3479.13027	5.29963
3477.20171	5.34552
3475.27314	5.38921
3473.34458	5.43598
3471.41602	5.49030
3469.48745	5.54885
3467.55889	5.59967
3465.63032	5.64266
3463.70176	5.69268
3461.77319	5.74757
3459.84463	5.79770
3457.91606	5.84870
3455.98750	5.90612
3454.05894	5.96375
3452.13037	6.01588
3450.20181	6.06193
3448.27324	6.10830
3446.34468	6.17040
3444.41611	6.24023
3442.48755	6.29326
3440.55898	6.32369
3438.63042	6.35282
3436.70186	6.39006
3434.77329	6.42222
3432.84473	6.45875
3430.91616	6.51155
3428.98760	6.56335
3427.05903	6.60968
3425.13047	6.68190
3423.20190	6.76483
3421.27334	6.82243
3419.34478	6.86836
3417.41621	6.91550
3415.48765	6.95070
3413.55908	6.99136
3411.63052	7.05843
3409.70195	7.11090
3407.77339	7.14984
3405.84482	7.21133
3403.91626	7.29073
3401.98770	7.35428
3400.05913	7.37201
3398.13057	7.36424
3396.20200	7.39544
3394.27344	7.48197
3392.34487	7.56788
3390.41631	7.61905
3388.48774	7.61660
3386.55918	7.63378
3384.63062	7.71751
3382.70205	7.78274
3380.77349	7.77529
3378.84492	7.72360
3376.91636	7.70688
3374.98779	7.75722
3373.05923	7.81212
3371.13066	7.82069
3369.20210	7.80685
3367.27354	7.77591
3365.34497	7.78399
3363.41641	7.86409
3361.48784	7.97133
3359.55928	8.07362
3357.63071	8.09586
3355.70215	8.05184
3353.77358	8.00442
3351.84502	7.99063
3349.91646	8.02393
3347.98789	8.06503
3346.05933	8.06468
3344.13076	8.05060
3342.20220	8.08667
3340.27363	8.14521
3338.34507	8.19013
3336.41650	8.19406
3334.48794	8.15080
3332.55937	8.11304
3330.63081	8.11656
3328.70225	8.13693
3326.77368	8.19015
3324.84512	8.30253
3322.91655	8.45230
3320.98799	8.52093
3319.05942	8.36739
3317.13086	8.22086
3315.20229	8.21544
3313.27373	8.21642
3311.34517	8.16935
3309.41660	8.16632
3307.48804	8.22337
3305.55947	8.24676
3303.63091	8.20353
3301.70234	8.10955
3299.77378	8.08466
3297.84521	8.20236
3295.91665	8.31273
3293.98809	8.27938
3292.05952	8.19601
3290.13096	8.14125
3288.20239	8.15654
3286.27383	8.24061
3284.34526	8.27765
3282.41670	8.28623
3280.48813	8.34637
3278.55957	8.45006
3276.63101	8.52001
3274.70244	8.44850
3272.77388	8.31011
3270.84531	8.24309
3268.91675	8.24500
3266.98818	8.26724
3265.05962	8.29515
3263.13105	8.36164
3261.20249	8.53107
3259.27393	8.66860
3257.34536	8.55943
3255.41680	8.33438
3253.48823	8.22514
3251.55967	8.24541
3249.63110	8.29064
3247.70254	8.33545
3245.77397	8.35578
3243.84541	8.30212
3241.91685	8.22621
3239.98828	8.21799
3238.05972	8.22339
3236.13115	8.18807
3234.20259	8.16986
3232.27402	8.23111
3230.34546	8.34169
3228.41689	8.30218
3226.48833	8.12732
3224.55977	8.00456
3222.63120	7.98970
3220.70264	8.01493
3218.77407	7.97735
3216.84551	7.95703
3214.91694	8.01354
3212.98838	8.05333
3211.05981	8.04571
3209.13125	8.03374
3207.20269	8.03898
3205.27412	8.00028
3203.34556	7.89914
3201.41699	7.87059
3199.48843	7.90473
3197.55986	7.84454
3195.63130	7.72726
3193.70273	7.65751
3191.77417	7.63328
3189.84561	7.63319
3187.91704	7.60754
3185.98848	7.53315
3184.05991	7.45555
3182.13135	7.39118
3180.20278	7.35538
3178.27422	7.35652
3176.34565	7.35948
3174.41709	7.33163
3172.48853	7.26059
3170.55996	7.17034
3168.63140	7.09198
3166.70283	7.01260
3164.77427	6.91084
3162.84570	6.80664
3160.91714	6.74121
3158.98857	6.70973
3157.06001	6.66160
3155.13145	6.58127
3153.20288	6.49163
3151.27432	6.41489
3149.34575	6.35760
3147.41719	6.30409
3145.48862	6.24015
3143.56006	6.16325
3141.63149	6.08889
3139.70293	6.02742
3137.77437	5.95188
3135.84580	5.86482
3133.91724	5.79991
3131.98867	5.73691
3130.06011	5.65952
3128.13154	5.59260
3126.20298	5.53122
3124.27441	5.45691
3122.34585	5.37548
3120.41729	5.29896
3118.48872	5.22681
3116.56016	5.15345
3114.63159	5.08027
3112.70303	5.00936
3110.77446	4.93968
3108.84590	4.87185
3106.91733	4.80490
3104.98877	4.73859
3103.06021	4.67263
3101.13164	4.60163
3099.20308	4.52935
3097.27451	4.46190
3095.34595	4.39368
3093.41738	4.32295
3091.48882	4.25739
3089.56025	4.19723
3087.63169	4.13390
3085.70312	4.06849
3083.77456	4.00718
3081.84600	3.94637
3079.91743	3.88283
3077.98887	3.82036
3076.06030	3.75924
3074.13174	3.69824
3072.20317	3.63869
3070.27461	3.57932
3068.34604	3.52135
3066.41748	3.46734
3064.48892	3.41341
3062.56035	3.35721
3060.63179	3.30135
3058.70322	3.24584
3056.77466	3.19021
3054.84609	3.13531
3052.91753	3.08186
3050.98896	3.03092
3049.06040	2.98155
3047.13184	2.93186
3045.20327	2.88225
3043.27471	2.83339
3041.34614	2.78434
3039.41758	2.73540
3037.48901	2.68802
3035.56045	2.64209
3033.63188	2.59720
3031.70332	2.55316
3029.77476	2.50948
3027.84619	2.46652
3025.91763	2.42416
3023.98906	2.38145
3022.06050	2.33908
3020.13193	2.29810
3018.20337	2.25808
3016.27480	2.21842
3014.34624	2.17921
3012.41768	2.14085
3010.48911	2.10345
3008.56055	2.06672
3006.63198	2.03048
3004.70342	1.99476
3002.77485	1.95939
3000.84629	1.92414
2998.91772	1.88945
2996.98916	1.85583
2995.06060	1.82266
2993.13203	1.78943
2991.20347	1.75688
2989.27490	1.72531
2987.34634	1.69409
2985.41777	1.66291
2983.48921	1.63227
2981.56064	1.60243
2979.63208	1.57302
2977.70352	1.54392
2975.77495	1.51529
2973.84639	1.48693
2971.91782	1.45875
2969.98926	1.43123
2968.06069	1.40458
2966.13213	1.37841
2964.20356	1.35247
2962.27500	1.32700
2960.34644	1.30208
2958.41787	1.27743
2956.48931	1.25342
2954.56074	1.23044
2952.63218	1.20821
2950.70361	1.18617
2948.77505	1.16404
2946.84648	1.14233
2944.91792	1.12159
2942.98936	1.10103
2941.06079	1.07986
2939.13223	1.05868
2937.20366	1.03811
2935.27510	1.01813
2933.34653	0.99890
2931.41797	0.98073
2929.48940	0.96363
2927.56084	0.94651
2925.63228	0.92863
2923.70371	0.91095
2921.77515	0.89425
2919.84658	0.87835
2917.91802	0.86307
2915.98945	0.84778
2914.06089	0.83197
2912.13232	0.81640
2910.20376	0.80157
2908.27520	0.78747
2906.34663	0.77408
2904.41807	0.76101
2902.48950	0.74810
2900.56094	0.73559
2898.63237	0.72328
2896.70381	0.71095
2894.77524	0.69878
2892.84668	0.68668
2890.91812	0.67470
2888.98955	0.66329
2887.06099	0.65225
2885.13242	0.64122
2883.20386	0.63002
2881.27529	0.61873
2879.34673	0.60786
2877.41816	0.59752
2875.48960	0.58725
2873.56104	0.57687
2871.63247	0.56667
2869.70391	0.55700
2867.77534	0.54769
2865.84678	0.53826
2863.91821	0.52874
2861.98965	0.51953
2860.06108	0.51054
2858.13252	0.50156
2856.20396	0.49294
2854.27539	0.48481
2852.34683	0.47690
2850.41826	0.46925
2848.48970	0.46177
2846.56113	0.45452
2844.63257	0.44789
2842.70400	0.44181
2840.77544	0.43598
2838.84687	0.43037
2836.91831	0.42492
2834.98975	0.41922
2833.06118	0.41309
2831.13262	0.40692
2829.20405	0.40118
2827.27549	0.39588
2825.34692	0.39057
2823.41836	0.38497
2821.48979	0.37909
2819.56123	0.37319
2817.63267	0.36762
2815.70410	0.36230
2813.77554	0.35693
2811.84697	0.35168
2809.91841	0.34666
2807.98984	0.34158
2806.06128	0.33654
2804.13271	0.33180
2802.20415	0.32724
2800.27559	0.32263
2798.34702	0.31802
2796.41846	0.31355
2794.48989	0.30921
2792.56133	0.30496
2790.63276	0.30079
2788.70420	0.29662
2786.77563	0.29255
2784.84707	0.28867
2782.91851	0.28493
2780.98994	0.28117
2779.06138	0.27744
2777.13281	0.27388
2775.20425	0.27048
2773.27568	0.26704
2771.34712	0.26354
2769.41855	0.26012
2767.48999	0.25680
2765.56143	0.25353
2763.63286	0.25046
2761.70430	0.24751
2759.77573	0.24450
2757.84717	0.24143
2755.91860	0.23840
2753.99004	0.23553
2752.06147	0.23274
2750.13291	0.23001
2748.20435	0.22737
2746.27578	0.22483
2744.34722	0.22229
2742.41865	0.21981
2740.49009	0.21752
2738.56152	0.21538
2736.63296	0.21317
2734.70439	0.21090
2732.77583	0.20878
2730.84727	0.20662
2728.91870	0.20427
2726.99014	0.20207
2725.06157	0.20019
2723.13301	0.19843
2721.20444	0.19662
2719.27588	0.19481
2717.34731	0.19297
2715.41875	0.19106
2713.49019	0.18911
2711.56162	0.18727
2709.63306	0.18576
2707.70449	0.18439
2705.77593	0.18292
2703.84736	0.18138
2701.91880	0.17992
2699.99023	0.17859
2698.06167	0.17726
2696.13311	0.17581
2694.20454	0.17429
2692.27598	0.17279
2690.34741	0.17150
2688.41885	0.17041
2686.49028	0.16928
2684.56172	0.16817
2682.63315	0.16726
2680.70459	0.16653
2678.77603	0.16576
2676.84746	0.16477
2674.91890	0.16356
2672.99033	0.16243
2671.06177	0.16155
2669.13320	0.16058
2667.20464	0.15942
2665.27607	0.15847
2663.34751	0.15786
2661.41895	0.15733
2659.49038	0.15662
2657.56182	0.15574
2655.63325	0.15488
2653.70469	0.15420
2651.77612	0.15354
2649.84756	0.15293
2647.91899	0.15258
2645.99043	0.15232
2644.06187	0.15188
2642.13330	0.15123
2640.20474	0.15067
2638.27617	0.15044
2636.34761	0.15035
2634.41904	0.15004
2632.49048	0.14963
2630.56191	0.14938
2628.63335	0.14916
2626.70479	0.14882
2624.77622	0.14851
2622.84766	0.14825
2620.91909	0.14797
2618.99053	0.14787
2617.06196	0.14793
2615.13340	0.14796
2613.20483	0.14796
2611.27627	0.14796
2609.34771	0.14797
2607.41914	0.14799
2605.49058	0.14800
2603.56201	0.14808
2601.63345	0.14823
2599.70488	0.14839
2597.77632	0.14845
2595.84775	0.14842
2593.91919	0.14846
2591.99062	0.14862
2590.06206	0.14882
2588.13350	0.14907
2586.20493	0.14933
2584.27637	0.14959
2582.34780	0.14989
2580.41924	0.15028
2578.49067	0.15074
2576.56211	0.15129
2574.63354	0.15183
2572.70498	0.15224
2570.77642	0.15251
2568.84785	0.15278
2566.91929	0.15317
2564.99072	0.15369
2563.06216	0.15420
2561.13359	0.15469
2559.20503	0.15527
2557.27646	0.15590
2555.34790	0.15652
2553.41934	0.15713
2551.49077	0.15775
2549.56221	0.15836
2547.63364	0.15899
2545.70508	0.15958
2543.77651	0.16010
2541.84795	0.16075
2539.91938	0.16155
2537.99082	0.16234
2536.06226	0.16307
2534.13369	0.16377
2532.20513	0.16453
2530.27656	0.16541
2528.34800	0.16632
2526.41943	0.16714
2524.49087	0.16799
2522.56230	0.16885
2520.63374	0.16958
2518.70518	0.17027
2516.77661	0.17099
2514.84805	0.17175
2512.91948	0.17255
2510.99092	0.17330
2509.06235	0.17402
2507.13379	0.17488
2505.20522	0.17589
2503.27666	0.17690
2501.34810	0.17783
2499.41953	0.17877
2497.49097	0.17966
2495.56240	0.18038
2493.63384	0.18116
2491.70527	0.18226
2489.77671	0.18343
2487.84814	0.18432
2485.91958	0.18515
2483.99102	0.18620
2482.06245	0.18729
2480.13389	0.18823
2478.20532	0.18918
2476.27676	0.19018
2474.34819	0.19117
2472.41963	0.19214
2470.49106	0.19305
2468.56250	0.19392
2466.63394	0.19487
2464.70537	0.19592
2462.77681	0.19697
2460.84824	0.19797
2458.91968	0.19894
2456.99111	0.19995
2455.06255	0.20101
2453.13398	0.20202
2451.20542	0.20307
2449.27686	0.20421
2447.34829	0.20530
2445.41973	0.20631
2443.49116	0.20735
2441.56260	0.20842
2439.63403	0.20947
2437.70547	0.21059
2435.77690	0.21183
2433.84834	0.21301
2431.91978	0.21399
2429.99121	0.21494
2428.06265	0.21598
2426.13408	0.21708
2424.20552	0.21820
2422.27695	0.21936
2420.34839	0.22048
2418.41982	0.22161
2416.49126	0.22283
2414.56270	0.22408
2412.63413	0.22534
2410.70557	0.22662
2408.77700	0.22786
2406.84844	0.22904
2404.91987	0.23021
2402.99131	0.23133
2401.06274	0.23239
2399.13418	0.23355
2397.20562	0.23488
2395.27705	0.23625
2393.34849	0.23750
2391.41992	0.23873
2389.49136	0.24002
2387.56279	0.24138
2385.63423	0.24264
2383.70566	0.24371
2381.77710	0.24469
2379.84854	0.24559
2377.91997	0.24626
2375.99141	0.24677
2374.06284	0.24747
2372.13428	0.24814
2370.20571	0.24846
2368.27715	0.24890
2366.34858	0.25011
2364.42002	0.25174
2362.49146	0.25281
2360.56289	0.25334
2358.63433	0.25439
2356.70576	0.25621
2354.77720	0.25909
2352.84863	0.26284
2350.92007	0.26569
2348.99150	0.26686
2347.06294	0.26721
2345.13437	0.26790
2343.20581	0.26941
2341.27725	0.27126
2339.34868	0.27279
2337.42012	0.27367
2335.49155	0.27473
2333.56299	0.27669
2331.63442	0.27933
2329.70586	0.28207
2327.77729	0.28439
2325.84873	0.28619
2323.92017	0.28799
2321.99160	0.29005
2320.06304	0.29210
2318.13447	0.29420
2316.20591	0.29647
2314.27734	0.29865
2312.34878	0.30059
2310.42021	0.30243
2308.49165	0.30431
2306.56309	0.30631
2304.63452	0.30838
2302.70596	0.31048
2300.77739	0.31262
2298.84883	0.31475
2296.92026	0.31677
2294.99170	0.31874
2293.06313	0.32071
2291.13457	0.32262
2289.20601	0.32458
2287.27744	0.32668
2285.34888	0.32880
2283.42031	0.33086
2281.49175	0.33285
2279.56318	0.33489
2277.63462	0.33700
2275.70605	0.33909
2273.77749	0.34114
2271.84893	0.34313
2269.92036	0.34518
2267.99180	0.34732
2266.06323	0.34947
2264.13467	0.35162
2262.20610	0.35388
2260.27754	0.35612
2258.34897	0.35825
2256.42041	0.36037
2254.49185	0.36255
2252.56328	0.36479
2250.63472	0.36709
2248.70615	0.36944
2246.77759	0.37177
2244.84902	0.37403
2242.92046	0.37618
2240.99189	0.37834
2239.06333	0.38060
2237.13477	0.38298
2235.20620	0.38535
2233.27764	0.38753
2231.34907	0.38964
2229.42051	0.39189
2227.49194	0.39420
2225.56338	0.39642
2223.63481	0.39863
2221.70625	0.40091
2219.77769	0.40318
2217.84912	0.40534
2215.92056	0.40749
2213.99199	0.40977
2212.06343	0.41208
2210.13486	0.41424
2208.20630	0.41632
2206.27773	0.41850
2204.34917	0.42070
2202.42061	0.42275
2200.49204	0.42472
2198.56348	0.42683
2196.63491	0.42895
2194.70635	0.43090
2192.77778	0.43277
2190.84922	0.43469
2188.92065	0.43656
2186.99209	0.43831
2185.06353	0.44014
2183.13496	0.44212
2181.20640	0.44402
2179.27783	0.44574
2177.34927	0.44733
2175.42070	0.44884
2173.49214	0.45033
2171.56357	0.45179
2169.63501	0.45323
2167.70645	0.45462
2165.77788	0.45589
2163.84932	0.45715
2161.92075	0.45845
2159.99219	0.45963
2158.06362	0.46063
2156.13506	0.46161
2154.20649	0.46254
2152.27793	0.46336
2150.34937	0.46419
2148.42080	0.46490
2146.49224	0.46534
2144.56367	0.46573
2142.63511	0.46617
2140.70654	0.46663
2138.77798	0.46712
2136.84941	0.46746
2134.92085	0.46760
2132.99229	0.46769
2131.06372	0.46762
2129.13516	0.46732
2127.20659	0.46697
2125.27803	0.46671
2123.34946	0.46647
2121.42090	0.46611
2119.49233	0.46559
2117.56377	0.46497
2115.63521	0.46424
2113.70664	0.46343
2111.77808	0.46255
2109.84951	0.46161
2107.92095	0.46069
2105.99238	0.45972
2104.06382	0.45858
2102.13525	0.45729
2100.20669	0.45599
2098.27812	0.45468
2096.34956	0.45328
2094.42100	0.45176
2092.49243	0.45013
2090.56387	0.44842
2088.63530	0.44667
2086.70674	0.44496
2084.77817	0.44318
2082.84961	0.44126
2080.92104	0.43929
2078.99248	0.43723
2077.06392	0.43502
2075.13535	0.43279
2073.20679	0.43066
2071.27822	0.42852
2069.34966	0.42628
2067.42109	0.42397
2065.49253	0.42165
2063.56396	0.41934
2061.63540	0.41703
2059.70684	0.41461
2057.77827	0.41209
2055.84971	0.40958
2053.92114	0.40703
2051.99258	0.40447
2050.06401	0.40193
2048.13545	0.39933
2046.20688	0.39662
2044.27832	0.39390
2042.34976	0.39121
2040.42119	0.38848
2038.49263	0.38572
2036.56406	0.38290
2034.63550	0.38005
2032.70693	0.37727
2030.77837	0.37454
2028.84980	0.37173
2026.92124	0.36884
2024.99268	0.36597
2023.06411	0.36314
2021.13555	0.36035
2019.20698	0.35771
2017.27842	0.35506
2015.34985	0.35220
2013.42129	0.34927
2011.49272	0.34647
2009.56416	0.34375
2007.63560	0.34103
2005.70703	0.33836
2003.77847	0.33576
2001.84990	0.33311
1999.92134	0.33032
1997.99277	0.32745
1996.06421	0.32474
1994.13564	0.32217
1992.20708	0.31956
1990.27852	0.31696
1988.34995	0.31451
1986.42139	0.31212
1984.49282	0.30973
1982.56426	0.30731
1980.63569	0.30482
1978.70713	0.30242
1976.77856	0.30012
1974.85000	0.29780
1972.92144	0.29549
1970.99287	0.29324
1969.06431	0.29108
1967.13574	0.28898
1965.20718	0.28693
1963.27861	0.28499
1961.35005	0.28311
1959.42148	0.28121
1957.49292	0.27928
1955.56436	0.27734
1953.63579	0.27544
1951.70723	0.27364
1949.77866	0.27199
1947.85010	0.27038
1945.92153	0.26867
1943.99297	0.26699
1942.06440	0.26550
1940.13584	0.26410
1938.20728	0.26271
1936.27871	0.26136
1934.35015	0.26008
1932.42158	0.25891
1930.49302	0.25771
1928.56445	0.25643
1926.63589	0.25517
1924.70732	0.25407
1922.77876	0.25303
1920.85020	0.25198
1918.92163	0.25103
1916.99307	0.25019
1915.06450	0.24932
1913.13594	0.24837
1911.20737	0.24754
1909.27881	0.24675
1907.35024	0.24596
1905.42168	0.24528
1903.49312	0.24475
1901.56455	0.24427
1899.63599	0.24375
1897.70742	0.24321
1895.77886	0.24269
1893.85029	0.24218
1891.92173	0.24160
1889.99316	0.24116
1888.06460	0.24098
1886.13604	0.24092
1884.20747	0.24087
1882.27891	0.24079
1880.35034	0.24067
1878.42178	0.24050
1876.49321	0.24037
1874.56465	0.24025
1872.63608	0.24015
1870.70752	0.24007
1868.77896	0.24029
1866.85039	0.24078
1864.92183	0.24113
1862.99326	0.24133
1861.06470	0.24153
1859.13613	0.24181
1857.20757	0.24209
1855.27900	0.24246
1853.35044	0.24292
1851.42187	0.24343
1849.49331	0.24394
1847.56475	0.24446
1845.63618	0.24504
1843.70762	0.24596
1841.77905	0.24701
1839.85049	0.24767
1837.92192	0.24840
1835.99336	0.24928
1834.06479	0.25019
1832.13623	0.25099
1830.20767	0.25206
1828.27910	0.25352
1826.35054	0.25484
1824.42197	0.25624
1822.49341	0.25760
1820.56484	0.25887
1818.63628	0.26025
1816.70771	0.26187
1814.77915	0.26349
1812.85059	0.26517
1810.92202	0.26712
1808.99346	0.26923
1807.06489	0.27124
1805.13633	0.27314
1803.20776	0.27519
1801.27920	0.27753
1799.35063	0.28036
1797.42207	0.28304
1795.49351	0.28541
1793.56494	0.28800
1791.63638	0.29165
1789.70781	0.29556
1787.77925	0.29852
1785.85068	0.30169
1783.92212	0.30535
1781.99355	0.30920
1780.06499	0.31335
1778.13643	0.31773
1776.20786	0.32165
1774.27930	0.32547
1772.35073	0.33091
1770.42217	0.33770
1768.49360	0.34363
1766.56504	0.34901
1764.63647	0.35423
1762.70791	0.35992
1760.77935	0.36750
1758.85078	0.37479
1756.92222	0.38194
1754.99365	0.38970
1753.06509	0.39652
1751.13652	0.40446
1749.20796	0.41497
1747.27939	0.42568
1745.35083	0.43502
1743.42227	0.44475
1741.49370	0.45541
1739.56514	0.46805
1737.63657	0.48065
1735.70801	0.49119
1733.77944	0.50732
1731.85088	0.52788
1729.92231	0.54420
1727.99375	0.56033
1726.06519	0.57726
1724.13662	0.59566
1722.20806	0.61553
1720.27949	0.63345
1718.35093	0.65408
1716.42236	0.68642
1714.49380	0.71834
1712.56523	0.74344
1710.63667	0.76709
1708.70811	0.79199
1706.77954	0.82005
1704.85098	0.85428
1702.92241	0.88502
1700.99385	0.91444
1699.06528	0.95867
1697.13672	0.99962
1695.20815	1.04139
1693.27959	1.08127
1691.35103	1.11210
1689.42246	1.14730
1687.49390	1.18414
1685.56533	1.21816
1683.63677	1.27204
1681.70820	1.33080
1679.77964	1.36779
1677.85107	1.40255
1675.92251	1.44194
1673.99395	1.49056
1672.06538	1.53305
1670.13682	1.57415
1668.20825	1.62938
1666.27969	1.67254
1664.35112	1.70673
1662.42256	1.74852
1660.49399	1.79640
1658.56543	1.83337
1656.63687	1.86354
1654.70830	1.89297
1652.77974	1.94789
1650.85117	2.00400
1648.92261	2.02407
1646.99404	2.05265
1645.06548	2.08719
1643.13691	2.11157
1641.20835	2.12755
1639.27979	2.14156
1637.35122	2.15112
1635.42266	2.15532
1633.49409	2.15280
1631.56553	2.14390
1629.63696	2.13248
1627.70840	2.11082
1625.77983	2.08451
1623.85127	2.04947
1621.92271	2.00546
1619.99414	1.96732
1618.06558	1.93059
1616.13701	1.87477
1614.20845	1.81525
1612.27988	1.77057
1610.35132	1.72442
1608.42275	1.67366
1606.49419	1.62249
1604.56562	1.57448
1602.63706	1.52694
1600.70850	1.47983
1598.77993	1.43675
1596.85137	1.39634
1594.92280	1.35670
1592.99424	1.31818
1591.06567	1.28289
1589.13711	1.24954
1587.20854	1.21781
1585.27998	1.18778
1583.35142	1.15941
1581.42285	1.13310
1579.49429	1.10988
1577.56572	1.08830
1575.63716	1.06096
1573.70859	1.03658
1571.78003	1.02061
1569.85146	1.00290
1567.92290	0.98214
1565.99434	0.96533
1564.06577	0.95041
1562.13721	0.93765
1560.20864	0.92643
1558.28008	0.90541
1556.35151	0.88684
1554.42295	0.87667
1552.49438	0.86661
1550.56582	0.85670
1548.63726	0.84651
1546.70869	0.83746
1544.78013	0.82915
1542.85156	0.82056
1540.92300	0.81072
1538.99443	0.79818
1537.06587	0.79018
1535.13730	0.78481
1533.20874	0.77767
1531.28018	0.77027
1529.35161	0.76495
1527.42305	0.75956
1525.49448	0.75353
1523.56592	0.74779
1521.63735	0.74174
1519.70879	0.73557
1517.78022	0.73055
1515.85166	0.72540
1513.92310	0.72072
1511.99453	0.71677
1510.06597	0.71263
1508.13740	0.70843
1506.20884	0.70347
1504.28027	0.69945
1502.35171	0.69656
1500.42314	0.69366
1498.49458	0.69033
1496.56602	0.68656
1494.63745	0.68327
1492.70889	0.68065
1490.78032	0.67799
1488.85176	0.67485
1486.92319	0.67194
1484.99463	0.66926
1483.06606	0.66656
1481.13750	0.66375
1479.20894	0.66096
1477.28037	0.65824
1475.35181	0.65535
1473.42324	0.65226
1471.49468	0.64885
1469.56611	0.64570
1467.63755	0.64303
1465.70898	0.64056
1463.78042	0.63813
1461.85186	0.63583
1459.92329	0.63369
1457.99473	0.63131
1456.06616	0.62847
1454.13760	0.62639
1452.20903	0.62493
1450.28047	0.62327
1448.35190	0.62137
1446.42334	0.61959
1444.49478	0.61811
1442.56621	0.61672
1440.63765	0.61534
1438.70908	0.61412
1436.78052	0.61289
1434.85195	0.61149
1432.92339	0.61006
1430.99482	0.60874
1429.06626	0.60735
1427.13770	0.60578
1425.20913	0.60418
1423.28057	0.60267
1421.35200	0.60121
1419.42344	0.59954
1417.49487	0.59783
1415.56631	0.59632
1413.63774	0.59489
1411.70918	0.59355
1409.78062	0.59233
1407.85205	0.59102
1405.92349	0.58955
1403.99492	0.58805
1402.06636	0.58664
1400.13779	0.58532
1398.20923	0.58396
1396.28066	0.58258
1394.35210	0.58134
1392.42354	0.58021
1390.49497	0.57903
1388.56641	0.57785
1386.63784	0.57670
1384.70928	0.57546
1382.78071	0.57423
1380.85215	0.57317
1378.92358	0.57231
1376.99502	0.57138
1375.06646	0.57039
1373.13789	0.56946
1371.20933	0.56851
1369.28076	0.56756
1367.35220	0.56661
1365.42363	0.56563
1363.49507	0.56467
1361.56650	0.56380
1359.63794	0.56294
1357.70937	0.56212
1355.78081	0.56132
1353.85225	0.56051
1351.92368	0.55974
1349.99512	0.55897
1348.06655	0.55805
1346.13799	0.55701
1344.20942	0.55605
1342.28086	0.55518
1340.35229	0.55432
1338.42373	0.55347
1336.49517	0.55250
1334.56660	0.55145
1332.63804	0.55049
1330.70947	0.54968
1328.78091	0.54896
1326.85234	0.54820
1324.92378	0.54739
1322.99521	0.54658
1321.06665	0.54575
1319.13809	0.54488
1317.20952	0.54403
1315.28096	0.54327
1313.35239	0.54249
1311.42383	0.54161
1309.49526	0.54075
1307.56670	0.53997
1305.63813	0.53919
1303.70957	0.53848
1301.78101	0.53789
1299.85244	0.53732
1297.92388	0.53673
1295.99531	0.53619
1294.06675	0.53555
1292.13818	0.53476
1290.20962	0.53399
1288.28105	0.53340
1286.35249	0.53295
1284.42393	0.53254
1282.49536	0.53202
1280.56680	0.53147
1278.63823	0.53098
1276.70967	0.53042
1274.78110	0.52986
1272.85254	0.52941
1270.92397	0.52896
1268.99541	0.52853
1267.06685	0.52828
1265.13828	0.52802
1263.20972	0.52757
1261.28115	0.52720
1259.35259	0.52709
1257.42402	0.52689
1255.49546	0.52648
1253.56689	0.52617
1251.63833	0.52611
1249.70977	0.52605
1247.78120	0.52574
1245.85264	0.52536
1243.92407	0.52517
1241.99551	0.52502
1240.06694	0.52465
1238.13838	0.52412
1236.20981	0.52361
1234.28125	0.52319
1232.35269	0.52271
1230.42412	0.52203
1228.49556	0.52133
1226.56699	0.52068
1224.63843	0.52001
1222.70986	0.51947
1220.78130	0.51908
1218.85273	0.51855
1216.92417	0.51795
1214.99561	0.51749
1213.06704	0.51707
1211.13848	0.51660
1209.20991	0.51607
1207.28135	0.51536
1205.35278	0.51451
1203.42422	0.51383
1201.49565	0.51332
1199.56709	0.51280
1197.63853	0.51229
1195.70996	0.51179
1193.78140	0.51133
1191.85283	0.51100
1189.92427	0.51063
1187.99570	0.51000
1186.06714	0.50948
1184.13857	0.50944
1182.21001	0.50964
1180.28145	0.50985
1178.35288	0.51001
1176.42432	0.51021
1174.49575	0.51052
1172.56719	0.51080
1170.63862	0.51096
1168.71006	0.51112
1166.78149	0.51134
1164.85293	0.51152
1162.92437	0.51163
1160.99580	0.51164
1159.06724	0.51138
1157.13867	0.51076
1155.21011	0.50979
1153.28154	0.50850
1151.35298	0.50701
1149.42441	0.50533
1147.49585	0.50339
1145.56729	0.50119
1143.63872	0.49883
1141.71016	0.49651
1139.78159	0.49431
1137.85303	0.49213
1135.92446	0.48988
1133.99590	0.48764
1132.06733	0.48562
1130.13877	0.48393
1128.21021	0.48241
1126.28164	0.48092
1124.35308	0.47961
1122.42451	0.47862
1120.49595	0.47786
1118.56738	0.47722
1116.63882	0.47680
1114.71025	0.47675
1112.78169	0.47701
1110.85312	0.47749
1108.92456	0.47814
1106.99600	0.47898
1105.06743	0.48009
1103.13887	0.48165
1101.21030	0.48364
1099.28174	0.48584
1097.35317	0.48833
1095.42461	0.49133
1093.49604	0.49485
1091.56748	0.49894
1089.63892	0.50362
1087.71035	0.50888
1085.78179	0.51460
1083.85322	0.52055
1081.92466	0.52650
1079.99609	0.53205
1078.06753	0.53622
1076.13896	0.53773
1074.21040	0.53626
1072.28184	0.53241
1070.35327	0.52697
1068.42471	0.52064
1066.49614	0.51396
1064.56758	0.50771
1062.63901	0.50238
1060.71045	0.49771
1058.78188	0.49338
1056.85332	0.48939
1054.92476	0.48583
1052.99619	0.48283
1051.06763	0.48053
1049.13906	0.47872
1047.21050	0.47694
1045.28193	0.47528
1043.35337	0.47414
1041.42480	0.47340
1039.49624	0.47276
1037.56768	0.47219
1035.63911	0.47180
1033.71055	0.47164
1031.78198	0.47162
1029.85342	0.47179
1027.92485	0.47213
1025.99629	0.47270
1024.06772	0.47361
1022.13916	0.47462
1020.21060	0.47556
1018.28203	0.47663
1016.35347	0.47788
1014.42490	0.47912
1012.49634	0.48021
1010.56777	0.48137
1008.63921	0.48299
1006.71064	0.48499
1004.78208	0.48707
1002.85352	0.48932
1000.92495	0.49203
998.99639	0.49517
997.06782	0.49852
995.13926	0.50211
993.21069	0.50587
991.28213	0.50931
989.35356	0.51203
987.42500	0.51396
985.49644	0.51524
983.56787	0.51617
981.63931	0.51718
979.71074	0.51863
977.78218	0.52064
975.85361	0.52324
973.92505	0.52630
971.99648	0.52960
970.06792	0.53300
968.13936	0.53655
966.21079	0.54045
964.28223	0.54496
962.35366	0.55002
960.42510	0.55533
958.49653	0.56085
956.56797	0.56664
954.63940	0.57271
952.71084	0.57884
950.78228	0.58484
948.85371	0.59099
946.92515	0.59745
944.99658	0.60383
943.06802	0.60995
941.13945	0.61588
939.21089	0.62182
937.28232	0.62782
935.35376	0.63342
933.42520	0.63866
931.49663	0.64430
929.56807	0.65021
927.63950	0.65582
925.71094	0.66172
923.78237	0.66835
921.85381	0.67477
919.92524	0.68108
917.99668	0.68810
916.06812	0.69493
914.13955	0.70149
912.21099	0.70946
910.28242	0.71837
908.35386	0.72674
906.42529	0.73489
904.49673	0.74338
902.56816	0.75233
900.63960	0.76216
898.71104	0.77253
896.78247	0.78221
894.85391	0.79091
892.92534	0.79976
890.99678	0.80996
889.06821	0.82106
887.13965	0.83191
885.21108	0.84328
883.28252	0.85557
881.35396	0.86694
879.42539	0.87741
877.49683	0.88879
875.56826	0.90075
873.63970	0.91198
871.71113	0.92264
869.78257	0.93347
867.85400	0.94439
865.92544	0.95563
863.99687	0.96809
862.06831	0.98098
860.13975	0.99242
858.21118	1.00296
856.28262	1.01349
854.35405	1.02397
852.42549	1.03636
850.49692	1.05102
848.56836	1.06446
846.63979	1.07600
844.71123	1.08802
842.78267	1.10068
840.85410	1.11273
838.92554	1.12320
836.99697	1.13258
835.06841	1.14254
833.13984	1.15457
831.21128	1.16783
829.28271	1.17853
827.35415	1.18781
825.42559	1.20111
823.49702	1.21716
821.56846	1.23051
819.63989	1.24355
817.71133	1.26284
815.78276	1.28578
813.85420	1.30323
811.92563	1.30951
809.99707	1.30031
808.06851	1.28725
806.13994	1.29625
804.21138	1.33171
802.28281	1.38099
800.35425	1.42040
798.42568	1.41293
796.49712	1.37699
794.56855	1.37216
792.63999	1.40981
790.71143	1.45425
788.78286	1.47934
786.85430	1.48901
784.92573	1.49664
782.99717	1.47601
781.06860	1.43551
779.14004	1.44432
777.21147	1.52082
775.28291	1.69493
773.35435	2.04159
771.42578	1.80181
769.49722	1.46382
767.56865	1.42887
765.64009	1.59861
763.71152	1.71541
761.78296	1.60304
759.85439	1.50935
757.92583	1.42937
755.99727	1.41940
754.06870	1.52305
752.14014	1.76697
750.21157	1.78065
748.28301	1.43727
746.35444	1.22044
744.42588	1.14615
742.49731	1.17906
740.56875	1.16663
738.64019	1.00319
736.71162	0.86860
734.78306	0.81923
732.85449	0.76642
730.92593	0.64355
728.99736	0.52772
727.06880	0.46964
725.14023	0.43015
723.21167	0.35677
721.28311	0.28554
719.35454	0.24330
717.42598	0.18378
715.49741	0.07795
713.56885	-0.02720
711.64028	-0.10153
709.71172	-0.15254
707.78315	-0.06941
705.85459	-0.00931
703.92603	0.05826
701.99746	0.12011
700.06890	0.18037
698.14033	0.30344
696.21177	0.38887
694.28320	0.19452
692.35464	0.05471
690.42607	0.09248
688.49751	0.14802
686.56895	0.09530
684.64038	0.09066
682.71182	0.13338
680.78325	0.09881
678.85469	0.09465
676.92612	0.21724
674.99756	0.29744
673.06899	0.25758
671.14043	0.22577
669.21187	0.21680
667.28330	0.21344
665.35474	0.13181
663.42617	0.04461
661.49761	0.11183
659.56904	0.19891
657.64048	0.16762
655.71191	0.14309
653.78335	0.21560
651.85479	0.33877
649.92622	0.49486
647.99766	0.43960
646.06909	0.23031
644.14053	0.15398
642.21196	0.17977
640.28340	0.17759
638.35483	0.11580
636.42627	0.05219
634.49771	0.04689
632.56914	0.07836
630.64058	0.06166
628.71201	0.08934
626.78345	0.15118
624.85488	0.10968
622.92632	0.02980
620.99775	-0.00117
619.06919	0.01572
617.14062	0.08656
615.21206	0.21075
613.28350	0.38286
611.35493	0.35486
609.42637	0.25676
607.49780	0.28965
605.56924	0.33974
603.64067	0.25518
601.71211	0.16140
599.78354	0.14529
597.85498	0.18202
595.92642	0.24136
593.99785	0.34191
592.06929	0.59289
590.14072	0.96116
588.21216	0.55676
586.28359	0.31124
584.35503	0.16418
582.42646	0.09098
580.49790	0.10636
578.56934	0.10572
576.64077	0.06901
574.71221	0.06266
572.78364	0.10894
570.85508	0.21292
568.92651	0.31674
566.99795	0.27471
565.06938	0.23122
563.14082	0.21625
561.21226	0.17296
559.28369	0.10062
557.35513	-0.00294
555.42656	-0.07362
553.49800	-0.01252
551.56943	0.16473
549.64087	0.31403
547.71230	0.29728
545.78374	0.22905
543.85518	0.20672
541.92661	0.22169
539.99805	0.19552
538.06948	0.13960
536.14092	0.11709
534.21235	0.16124
532.28379	0.27745
530.35522	0.34850
528.42666	0.25731
526.49810	0.19349
524.56953	0.32876
522.64097	0.84200
520.71240	0.70405
518.78384	0.39760
516.85527	0.35552
514.92671	0.38419
512.99814	0.34881
511.06958	0.25684
509.14102	0.19331
507.21245	0.16700
505.28389	0.12470
503.35532	0.09552
501.42676	0.11417
499.49819	0.14348
