3997.91411	0.07360
3995.98555	0.07391
3994.05698	0.07420
3992.12842	0.07420
3990.19985	0.07407
3988.27129	0.07412
3986.34272	0.07442
3984.41416	0.07478
3982.48560	0.07508
3980.55703	0.07544
3978.62847	0.07585
3976.69990	0.07621
3974.77134	0.07638
3972.84277	0.07635
3970.91421	0.07642
3968.98564	0.07652
3967.05708	0.07639
3965.12852	0.07613
3963.19995	0.07626
3961.27139	0.07705
3959.34282	0.07797
3957.41426	0.07830
3955.48569	0.07801
3953.55713	0.07754
3951.62856	0.07735
3949.70000	0.07763
3947.77144	0.07793
3945.84287	0.07762
3943.91431	0.07707
3941.98574	0.07690
3940.05718	0.07722
3938.12861	0.07782
3936.20005	0.07831
3934.27148	0.07840
3932.34292	0.07812
3930.41436	0.07773
3928.48579	0.07741
3926.55723	0.07696
3924.62866	0.07666
3922.70010	0.07673
3920.77153	0.07672
3918.84297	0.07659
3916.91440	0.07662
3914.98584	0.07687
3913.05728	0.07709
3911.12871	0.07698
3909.20015	0.07657
3907.27158	0.07635
3905.34302	0.07668
3903.41445	0.07747
3901.48589	0.07785
3899.55732	0.07759
3897.62876	0.07756
3895.70020	0.07738
3893.77163	0.07689
3891.84307	0.07671
3889.91450	0.07668
3887.98594	0.07630
3886.05737	0.07636
3884.12881	0.07699
3882.20024	0.07731
3880.27168	0.07741
3878.34312	0.07758
3876.41455	0.07772
3874.48599	0.07819
3872.55742	0.07862
3870.62886	0.07834
3868.70029	0.07824
3866.77173	0.07846
3864.84316	0.07854
3862.91460	0.07884
3860.98604	0.07908
3859.05747	0.07898
3857.12891	0.07869
3855.20034	0.07828
3853.27178	0.07893
3851.34321	0.08141
3849.41465	0.08263
3847.48608	0.08302
3845.55752	0.08321
3843.62896	0.08296
3841.70039	0.08300
3839.77183	0.08425
3837.84326	0.08621
3835.91470	0.08712
3833.98613	0.08673
3832.05757	0.08673
3830.12900	0.08754
3828.20044	0.08826
3826.27187	0.08892
3824.34331	0.08989
3822.41475	0.09083
3820.48618	0.09199
3818.55762	0.09295
3816.62905	0.09332
3814.70049	0.09422
3812.77192	0.09538
3810.84336	0.09617
3808.91479	0.09695
3806.98623	0.09799
3805.05767	0.09906
3803.12910	0.09996
3801.20054	0.10137
3799.27197	0.10339
3797.34341	0.10510
3795.41484	0.10654
3793.48628	0.10739
3791.55771	0.10807
3789.62915	0.10923
3787.70059	0.11041
3785.77202	0.11151
3783.84346	0.11283
3781.91489	0.11419
3779.98633	0.11579
3778.05776	0.11793
3776.12920	0.11977
3774.20063	0.12106
3772.27207	0.12240
3770.34351	0.12427
3768.41494	0.12661
3766.48638	0.12856
3764.55781	0.13019
3762.62925	0.13176
3760.70068	0.13370
3758.77212	0.13666
3756.84355	0.13951
3754.91499	0.14111
3752.98643	0.14248
3751.05786	0.14521
3749.12930	0.14967
3747.20073	0.15287
3745.27217	0.15510
3743.34360	0.15855
3741.41504	0.16215
3739.48647	0.16500
3737.55791	0.16803
3735.62935	0.17219
3733.70078	0.17807
3731.77222	0.18382
3729.84365	0.18844
3727.91509	0.19266
3725.98652	0.19784
3724.05796	0.20456
3722.12939	0.21203
3720.20083	0.21973
3718.27227	0.22728
3716.34370	0.23457
3714.41514	0.24150
3712.48657	0.24954
3710.55801	0.26230
3708.62944	0.27793
3706.70088	0.29067
3704.77231	0.30197
3702.84375	0.31502
3700.91519	0.33233
3698.98662	0.35166
3697.05806	0.36974
3695.12949	0.38849
3693.20093	0.40829
3691.27236	0.42949
3689.34380	0.45737
3687.41523	0.49360
3685.48667	0.52551
3683.55811	0.55169
3681.62954	0.57936
3679.70098	0.61115
3677.77241	0.64450
3675.84385	0.68329
3673.91528	0.73711
3671.98672	0.78121
3670.05815	0.81980
3668.12959	0.87488
3666.20103	0.92569
3664.27246	0.96713
3662.34390	1.01076
3660.41533	1.05779
3658.48677	1.10414
3656.55820	1.15330
3654.62964	1.20822
3652.70107	1.25369
3650.77251	1.29237
3648.84395	1.34750
3646.91538	1.41882
3644.98682	1.47140
3643.05825	1.51116
3641.12969	1.55156
3639.20112	1.59625
3637.27256	1.64106
3635.34399	1.68393
3633.41543	1.72600
3631.48687	1.76516
3629.55830	1.80573
3627.62974	1.86123
3625.70117	1.91262
3623.77261	1.94574
3621.84404	1.97785
3619.91548	2.01573
3617.98691	2.06143
3616.05835	2.10488
3614.12979	2.14214
3612.20122	2.18288
3610.27266	2.22304
3608.34409	2.26168
3606.41553	2.30345
3604.48696	2.34307
3602.55840	2.37814
3600.62983	2.41589
3598.70127	2.45712
3596.77271	2.49714
3594.84414	2.53720
3592.91558	2.57850
3590.98701	2.61741
3589.05845	2.65241
3587.12988	2.69390
3585.20132	2.74322
3583.27275	2.78676
3581.34419	2.82551
3579.41562	2.86650
3577.48706	2.91038
3575.55850	2.95264
3573.62993	2.99319
3571.70137	3.03292
3569.77280	3.07182
3567.84424	3.11468
3565.91567	3.17025
3563.98711	3.22319
3562.05854	3.26300
3560.12998	3.30235
3558.20142	3.34550
3556.27285	3.39043
3554.34429	3.43542
3552.41572	3.48281
3550.48716	3.53063
3548.55859	3.57450
3546.63003	3.61703
3544.70146	3.66294
3542.77290	3.71035
3540.84434	3.75631
3538.91577	3.80098
3536.98721	3.84646
3535.05864	3.89752
3533.13008	3.94910
3531.20151	3.99560
3529.27295	4.03926
3527.34438	4.08485
3525.41582	4.13394
3523.48726	4.18219
3521.55869	4.22812
3519.63013	4.27633
3517.70156	4.32929
3515.77300	4.38179
3513.84443	4.43107
3511.91587	4.47505
3509.98730	4.51631
3508.05874	4.56651
3506.13018	4.62321
3504.20161	4.67191
3502.27305	4.71218
3500.34448	4.75478
3498.41592	4.80355
3496.48735	4.85497
3494.55879	4.90445
3492.63022	4.95074
3490.70166	4.99323
3488.77310	5.03207
3486.84453	5.07366
3484.91597	5.12259
3482.98740	5.17375
3481.05884	5.22284
3479.13027	5.27242
3477.20171	5.32549
3475.27314	5.37881
3473.34458	5.42666
3471.41602	5.46763
3469.48745	5.50823
3467.55889	5.56138
3465.63032	5.62654
3463.70176	5.68520
3461.77319	5.72978
3459.84463	5.77492
3457.91606	5.82981
3455.98750	5.89145
3454.05894	5.94528
3452.13037	5.97824
3450.20181	5.99889
3448.27324	6.02334
3446.34468	6.07113
3444.41611	6.14176
3442.48755	6.21399
3440.55898	6.27907
3438.63042	6.33683
3436.70186	6.38486
3434.77329	6.43428
3432.84473	6.49305
3430.91616	6.55271
3428.98760	6.60673
3427.05903	6.65301
3425.13047	6.71380
3423.20190	6.78056
3421.27334	6.81437
3419.34478	6.82819
3417.41621	6.86277
3415.48765	6.89240
3413.55908	6.91265
3411.63052	6.97727
3409.70195	7.03224
3407.77339	7.03164
3405.84482	7.04109
3403.91626	7.10128
3401.98770	7.17999
3400.05913	7.24171
3398.13057	7.27798
3396.20200	7.29817
3394.27344	7.32758
3392.34487	7.37011
3390.41631	7.44720
3388.48774	7.52463
3386.55918	7.56248
3384.63062	7.59975
3382.70205	7.65008
3380.77349	7.68263
3378.84492	7.70759
3376.91636	7.76361
3374.98779	7.85847
3373.05923	7.95705
3371.13066	7.92160
3369.20210	7.79799
3367.27354	7.75129
3365.34497	7.79189
3363.41641	7.84306
3361.48784	7.84444
3359.55928	7.83672
3357.63071	7.86242
3355.70215	7.89705
3353.77358	7.91858
3351.84502	7.93992
3349.91646	7.94117
3347.98789	7.96381
3346.05933	8.02595
3344.13076	8.03421
3342.20220	7.98808
3340.27363	7.96468
3338.34507	7.96449
3336.41650	7.92718
3334.48794	7.88539
3332.55937	7.89236
3330.63081	7.98271
3328.70225	8.08660
3326.77368	8.09430
3324.84512	8.08465
3322.91655	8.10776
3320.98799	8.09965
3319.05942	8.01655
3317.13086	7.94938
3315.20229	7.95979
3313.27373	8.02079
3311.34517	8.05344
3309.41660	8.02845
3307.48804	8.03095
3305.55947	8.03670
3303.63091	8.02863
3301.70234	8.07823
3299.77378	8.15265
3297.84521	8.14704
3295.91665	8.11736
3293.98809	8.15078
3292.05952	8.20048
3290.13096	8.22050
3288.20239	8.24913
3286.27383	8.31649
3284.34526	8.36279
3282.41670	8.37210
3280.48813	8.38991
3278.55957	8.40845
3276.63101	8.38046
3274.70244	8.32573
3272.77388	8.29963
3270.84531	8.32747
3268.91675	8.38845
3266.98818	8.42078
3265.05962	8.38589
3263.13105	8.26419
3261.20249	8.18101
3259.27393	8.25330
3257.34536	8.35258
3255.41680	8.31078
3253.48823	8.26545
3251.55967	8.33743
3249.63110	8.40980
3247.70254	8.38996
3245.77397	8.29697
3243.84541	8.21215
3241.91685	8.18841
3239.98828	8.20268
3238.05972	8.29008
3236.13115	8.42084
3234.20259	8.35112
3232.27402	8.11174
3230.34546	8.00860
3228.41689	8.11278
3226.48833	8.25953
3224.55977	8.27848
3222.63120	8.19402
3220.70264	8.10103
3218.77407	8.08712
3216.84551	8.11612
3214.91694	8.08820
3212.98838	8.07402
3211.05981	8.11440
3209.13125	8.13467
3207.20269	8.05689
3205.27412	7.90616
3203.34556	7.81963
3201.41699	7.77109
3199.48843	7.68585
3197.55986	7.67592
3195.63130	7.73210
3193.70273	7.71326
3191.77417	7.65585
3189.84561	7.61978
3187.91704	7.56879
3185.98848	7.48627
3184.05991	7.40667
3182.13135	7.36419
3180.20278	7.34301
3178.27422	7.28797
3176.34565	7.19192
3174.41709	7.12282
3172.48853	7.09501
3170.55996	7.03057
3168.63140	6.94613
3166.70283	6.91389
3164.77427	6.87711
3162.84570	6.78944
3160.91714	6.71453
3158.98857	6.68316
3157.06001	6.64864
3155.13145	6.57764
3153.20288	6.49399
3151.27432	6.42112
3149.34575	6.35880
3147.41719	6.29105
3145.48862	6.21367
3143.56006	6.14762
3141.63149	6.09169
3139.70293	6.02167
3137.77437	5.93863
3135.84580	5.86205
3133.91724	5.79048
3131.98867	5.71162
3130.06011	5.64104
3128.13154	5.58072
3126.20298	5.50517
3124.27441	5.42553
3122.34585	5.36192
3120.41729	5.30019
3118.48872	5.22589
3116.56016	5.14846
3114.63159	5.07775
3112.70303	5.00659
3110.77446	4.93063
3108.84590	4.85843
3106.91733	4.79469
3104.98877	4.73528
3103.06021	4.67354
3101.13164	4.60325
3099.20308	4.52824
3097.27451	4.45691
3095.34595	4.39011
3093.41738	4.32657
3091.48882	4.26508
3089.56025	4.20461
3087.63169	4.14327
3085.70312	4.07847
3083.77456	4.01269
3081.84600	3.94980
3079.91743	3.88941
3077.98887	3.82947
3076.06030	3.76859
3074.13174	3.70809
3072.20317	3.64850
3070.27461	3.58935
3068.34604	3.53208
3066.41748	3.47474
3064.48892	3.41635
3062.56035	3.36077
3060.63179	3.30823
3058.70322	3.25511
3056.77466	3.20037
3054.84609	3.14595
3052.91753	3.09353
3050.98896	3.04347
3049.06040	2.99437
3047.13184	2.94363
3045.20327	2.89157
3043.27471	2.84139
3041.34614	2.79395
3039.41758	2.74772
3037.48901	2.70146
3035.56045	2.65487
3033.63188	2.60854
3031.70332	2.56307
3029.77476	2.51891
3027.84619	2.47584
3025.91763	2.43311
3023.98906	2.39100
3022.06050	2.35009
3020.13193	2.30996
3018.20337	2.26971
3016.27480	2.22912
3014.34624	2.18960
3012.41768	2.15199
3010.48911	2.11518
3008.56055	2.07858
3006.63198	2.04235
3004.70342	2.00610
3002.77485	1.97002
3000.84629	1.93468
2998.91772	1.90034
2996.98916	1.86699
2995.06060	1.83400
2993.13203	1.80133
2991.20347	1.76945
2989.27490	1.73796
2987.34634	1.70690
2985.41777	1.67665
2983.48921	1.64677
2981.56064	1.61704
2979.63208	1.58767
2977.70352	1.55869
2975.77495	1.53021
2973.84639	1.50231
2971.91782	1.47488
2969.98926	1.44780
2968.06069	1.42114
2966.13213	1.39525
2964.20356	1.37016
2962.27500	1.34519
2960.34644	1.32019
2958.41787	1.29544
2956.48931	1.27092
2954.56074	1.24768
2952.63218	1.22626
2950.70361	1.20519
2948.77505	1.18367
2946.84648	1.16219
2944.91792	1.14095
2942.98936	1.11983
2941.06079	1.09883
2939.13223	1.07844
2937.20366	1.05870
2935.27510	1.03897
2933.34653	1.01963
2931.41797	1.00136
2929.48940	0.98379
2927.56084	0.96630
2925.63228	0.94867
2923.70371	0.93119
2921.77515	0.91427
2919.84658	0.89793
2917.91802	0.88181
2915.98945	0.86593
2914.06089	0.85046
2912.13232	0.83531
2910.20376	0.82082
2908.27520	0.80699
2906.34663	0.79315
2904.41807	0.77927
2902.48950	0.76601
2900.56094	0.75353
2898.63237	0.74132
2896.70381	0.72880
2894.77524	0.71610
2892.84668	0.70384
2890.91812	0.69212
2888.98955	0.68067
2887.06099	0.66938
2885.13242	0.65826
2883.20386	0.64722
2881.27529	0.63617
2879.34673	0.62529
2877.41816	0.61475
2875.48960	0.60443
2873.56104	0.59438
2871.63247	0.58459
2869.70391	0.57465
2867.77534	0.56451
2865.84678	0.55450
2863.91821	0.54470
2861.98965	0.53528
2860.06108	0.52629
2858.13252	0.51731
2856.20396	0.50830
2854.27539	0.49965
2852.34683	0.49138
2850.41826	0.48334
2848.48970	0.47554
2846.56113	0.46810
2844.63257	0.46113
2842.70400	0.45453
2840.77544	0.44807
2838.84687	0.44194
2836.91831	0.43627
2834.98975	0.43044
2833.06118	0.42419
2831.13262	0.41801
2829.20405	0.41215
2827.27549	0.40641
2825.34692	0.40060
2823.41836	0.39473
2821.48979	0.38896
2819.56123	0.38333
2817.63267	0.37769
2815.70410	0.37203
2813.77554	0.36655
2811.84697	0.36130
2809.91841	0.35609
2807.98984	0.35087
2806.06128	0.34589
2804.13271	0.34123
2802.20415	0.33659
2800.27559	0.33177
2798.34702	0.32697
2796.41846	0.32228
2794.48989	0.31773
2792.56133	0.31328
2790.63276	0.30892
2788.70420	0.30471
2786.77563	0.30059
2784.84707	0.29652
2782.91851	0.29264
2780.98994	0.28894
2779.06138	0.28526
2777.13281	0.28162
2775.20425	0.27804
2773.27568	0.27439
2771.34712	0.27070
2769.41855	0.26712
2767.48999	0.26372
2765.56143	0.26060
2763.63286	0.25759
2761.70430	0.25439
2759.77573	0.25112
2757.84717	0.24806
2755.91860	0.24514
2753.99004	0.24226
2752.06147	0.23941
2750.13291	0.23662
2748.20435	0.23390
2746.27578	0.23119
2744.34722	0.22854
2742.41865	0.22604
2740.49009	0.22368
2738.56152	0.22147
2736.63296	0.21937
2734.70439	0.21723
2732.77583	0.21501
2730.84727	0.21268
2728.91870	0.21031
2726.99014	0.20808
2725.06157	0.20593
2723.13301	0.20388
2721.20444	0.20212
2719.27588	0.20040
2717.34731	0.19845
2715.41875	0.19643
2713.49019	0.19457
2711.56162	0.19285
2709.63306	0.19122
2707.70449	0.18964
2705.77593	0.18810
2703.84736	0.18664
2701.91880	0.18512
2699.99023	0.18354
2698.06167	0.18217
2696.13311	0.18093
2694.20454	0.17949
2692.27598	0.17792
2690.34741	0.17652
2688.41885	0.17522
2686.49028	0.17397
2684.56172	0.17293
2682.63315	0.17202
2680.70459	0.17108
2678.77603	0.17004
2676.84746	0.16882
2674.91890	0.16757
2672.99033	0.16658
2671.06177	0.16583
2669.13320	0.16489
2667.20464	0.16369
2665.27607	0.16268
2663.34751	0.16193
2661.41895	0.16116
2659.49038	0.16030
2657.56182	0.15950
2655.63325	0.15873
2653.70469	0.15798
2651.77612	0.15724
2649.84756	0.15656
2647.91899	0.15604
2645.99043	0.15569
2644.06187	0.15528
2642.13330	0.15465
2640.20474	0.15403
2638.27617	0.15375
2636.34761	0.15356
2634.41904	0.15314
2632.49048	0.15270
2630.56191	0.15250
2628.63335	0.15230
2626.70479	0.15185
2624.77622	0.15137
2622.84766	0.15104
2620.91909	0.15075
2618.99053	0.15062
2617.06196	0.15071
2615.13340	0.15080
2613.20483	0.15075
2611.27627	0.15059
2609.34771	0.15037
2607.41914	0.15022
2605.49058	0.15031
2603.56201	0.15050
2601.63345	0.15059
2599.70488	0.15064
2597.77632	0.15073
2595.84775	0.15083
2593.91919	0.15090
2591.99062	0.15086
2590.06206	0.15081
2588.13350	0.15099
2586.20493	0.15136
2584.27637	0.15177
2582.34780	0.15219
2580.41924	0.15265
2578.49067	0.15307
2576.56211	0.15338
2574.63354	0.15367
2572.70498	0.15407
2570.77642	0.15461
2568.84785	0.15509
2566.91929	0.15542
2564.99072	0.15574
2563.06216	0.15611
2561.13359	0.15659
2559.20503	0.15711
2557.27646	0.15757
2555.34790	0.15814
2553.41934	0.15891
2551.49077	0.15965
2549.56221	0.16026
2547.63364	0.16078
2545.70508	0.16124
2543.77651	0.16174
2541.84795	0.16244
2539.91938	0.16327
2537.99082	0.16394
2536.06226	0.16454
2534.13369	0.16526
2532.20513	0.16602
2530.27656	0.16676
2528.34800	0.16755
2526.41943	0.16833
2524.49087	0.16912
2522.56230	0.16995
2520.63374	0.17078
2518.70518	0.17151
2516.77661	0.17221
2514.84805	0.17298
2512.91948	0.17379
2510.99092	0.17463
2509.06235	0.17550
2507.13379	0.17638
2505.20522	0.17722
2503.27666	0.17798
2501.34810	0.17882
2499.41953	0.17989
2497.49097	0.18091
2495.56240	0.18169
2493.63384	0.18246
2491.70527	0.18338
2489.77671	0.18434
2487.84814	0.18520
2485.91958	0.18604
2483.99102	0.18703
2482.06245	0.18804
2480.13389	0.18892
2478.20532	0.18981
2476.27676	0.19078
2474.34819	0.19173
2472.41963	0.19266
2470.49106	0.19355
2468.56250	0.19449
2466.63394	0.19550
2464.70537	0.19648
2462.77681	0.19743
2460.84824	0.19851
2458.91968	0.19968
2456.99111	0.20083
2455.06255	0.20191
2453.13398	0.20287
2451.20542	0.20369
2449.27686	0.20454
2447.34829	0.20553
2445.41973	0.20658
2443.49116	0.20772
2441.56260	0.20884
2439.63403	0.20988
2437.70547	0.21095
2435.77690	0.21209
2433.84834	0.21322
2431.91978	0.21438
2429.99121	0.21552
2428.06265	0.21646
2426.13408	0.21731
2424.20552	0.21826
2422.27695	0.21938
2420.34839	0.22057
2418.41982	0.22176
2416.49126	0.22297
2414.56270	0.22416
2412.63413	0.22533
2410.70557	0.22662
2408.77700	0.22802
2406.84844	0.22938
2404.91987	0.23052
2402.99131	0.23149
2401.06274	0.23255
2399.13418	0.23382
2397.20562	0.23520
2395.27705	0.23652
2393.34849	0.23774
2391.41992	0.23899
2389.49136	0.24028
2387.56279	0.24157
2385.63423	0.24282
2383.70566	0.24391
2381.77710	0.24493
2379.84854	0.24610
2377.91997	0.24739
2375.99141	0.24872
2374.06284	0.25006
2372.13428	0.25117
2370.20571	0.25200
2368.27715	0.25299
2366.34858	0.25432
2364.42002	0.25530
2362.49146	0.25598
2360.56289	0.25729
2358.63433	0.25905
2356.70576	0.26059
2354.77720	0.26270
2352.84863	0.26593
2350.92007	0.26858
2348.99150	0.26970
2347.06294	0.27029
2345.13437	0.27158
2343.20581	0.27381
2341.27725	0.27590
2339.34868	0.27724
2337.42012	0.27822
2335.49155	0.27953
2333.56299	0.28129
2331.63442	0.28338
2329.70586	0.28547
2327.77729	0.28736
2325.84873	0.28908
2323.92017	0.29083
2321.99160	0.29268
2320.06304	0.29468
2318.13447	0.29670
2316.20591	0.29839
2314.27734	0.29986
2312.34878	0.30156
2310.42021	0.30355
2308.49165	0.30547
2306.56309	0.30725
2304.63452	0.30910
2302.70596	0.31114
2300.77739	0.31321
2298.84883	0.31514
2296.92026	0.31694
2294.99170	0.31877
2293.06313	0.32073
2291.13457	0.32271
2289.20601	0.32463
2287.27744	0.32665
2285.34888	0.32881
2283.42031	0.33091
2281.49175	0.33290
2279.56318	0.33499
2277.63462	0.33716
2275.70605	0.33924
2273.77749	0.34129
2271.84893	0.34335
2269.92036	0.34538
2267.99180	0.34743
2266.06323	0.34956
2264.13467	0.35169
2262.20610	0.35380
2260.27754	0.35592
2258.34897	0.35806
2256.42041	0.36025
2254.49185	0.36250
2252.56328	0.36469
2250.63472	0.36694
2248.70615	0.36928
2246.77759	0.37152
2244.84902	0.37364
2242.92046	0.37578
2240.99189	0.37799
2239.06333	0.38028
2237.13477	0.38257
2235.20620	0.38487
2233.27764	0.38721
2231.34907	0.38952
2229.42051	0.39172
2227.49194	0.39387
2225.56338	0.39609
2223.63481	0.39831
2221.70625	0.40044
2219.77769	0.40265
2217.84912	0.40494
2215.92056	0.40718
2213.99199	0.40934
2212.06343	0.41153
2210.13486	0.41375
2208.20630	0.41600
2206.27773	0.41828
2204.34917	0.42040
2202.42061	0.42236
2200.49204	0.42442
2198.56348	0.42655
2196.63491	0.42854
2194.70635	0.43043
2192.77778	0.43231
2190.84922	0.43416
2188.92065	0.43602
2186.99209	0.43793
2185.06353	0.43983
2183.13496	0.44171
2181.20640	0.44348
2179.27783	0.44508
2177.34927	0.44664
2175.42070	0.44820
2173.49214	0.44976
2171.56357	0.45128
2169.63501	0.45275
2167.70645	0.45422
2165.77788	0.45559
2163.84932	0.45676
2161.92075	0.45790
2159.99219	0.45903
2158.06362	0.46000
2156.13506	0.46091
2154.20649	0.46184
2152.27793	0.46268
2150.34937	0.46342
2148.42080	0.46407
2146.49224	0.46457
2144.56367	0.46500
2142.63511	0.46549
2140.70654	0.46599
2138.77798	0.46636
2136.84941	0.46657
2134.92085	0.46671
2132.99229	0.46683
2131.06372	0.46688
2129.13516	0.46680
2127.20659	0.46656
2125.27803	0.46626
2123.34946	0.46597
2121.42090	0.46563
2119.49233	0.46510
2117.56377	0.46440
2115.63521	0.46365
2113.70664	0.46293
2111.77808	0.46214
2109.84951	0.46117
2107.92095	0.46020
2105.99238	0.45919
2104.06382	0.45801
2102.13525	0.45674
2100.20669	0.45539
2098.27812	0.45389
2096.34956	0.45242
2094.42100	0.45097
2092.49243	0.44935
2090.56387	0.44762
2088.63530	0.44592
2086.70674	0.44421
2084.77817	0.44234
2082.84961	0.44041
2080.92104	0.43856
2078.99248	0.43664
2077.06392	0.43451
2075.13535	0.43231
2073.20679	0.43015
2071.27822	0.42796
2069.34966	0.42566
2067.42109	0.42327
2065.49253	0.42089
2063.56396	0.41853
2061.63540	0.41617
2059.70684	0.41377
2057.77827	0.41129
2055.84971	0.40874
2053.92114	0.40617
2051.99258	0.40369
2050.06401	0.40118
2048.13545	0.39858
2046.20688	0.39588
2044.27832	0.39312
2042.34976	0.39041
2040.42119	0.38774
2038.49263	0.38504
2036.56406	0.38225
2034.63550	0.37938
2032.70693	0.37657
2030.77837	0.37385
2028.84980	0.37104
2026.92124	0.36816
2024.99268	0.36528
2023.06411	0.36241
2021.13555	0.35958
2019.20698	0.35680
2017.27842	0.35407
2015.34985	0.35135
2013.42129	0.34857
2011.49272	0.34572
2009.56416	0.34293
2007.63560	0.34023
2005.70703	0.33749
2003.77847	0.33478
2001.84990	0.33217
1999.92134	0.32952
1997.99277	0.32679
1996.06421	0.32415
1994.13564	0.32161
1992.20708	0.31901
1990.27852	0.31631
1988.34995	0.31371
1986.42139	0.31125
1984.49282	0.30891
1982.56426	0.30655
1980.63569	0.30410
1978.70713	0.30171
1976.77856	0.29947
1974.85000	0.29723
1972.92144	0.29490
1970.99287	0.29261
1969.06431	0.29047
1967.13574	0.28843
1965.20718	0.28642
1963.27861	0.28445
1961.35005	0.28248
1959.42148	0.28046
1957.49292	0.27843
1955.56436	0.27653
1953.63579	0.27476
1951.70723	0.27306
1949.77866	0.27141
1947.85010	0.26977
1945.92153	0.26815
1943.99297	0.26664
1942.06440	0.26518
1940.13584	0.26375
1938.20728	0.26233
1936.27871	0.26087
1934.35015	0.25943
1932.42158	0.25818
1930.49302	0.25702
1928.56445	0.25583
1926.63589	0.25466
1924.70732	0.25359
1922.77876	0.25254
1920.85020	0.25143
1918.92163	0.25039
1916.99307	0.24954
1915.06450	0.24869
1913.13594	0.24778
1911.20737	0.24698
1909.27881	0.24626
1907.35024	0.24555
1905.42168	0.24485
1903.49312	0.24422
1901.56455	0.24366
1899.63599	0.24308
1897.70742	0.24257
1895.77886	0.24217
1893.85029	0.24181
1891.92173	0.24134
1889.99316	0.24098
1888.06460	0.24085
1886.13604	0.24072
1884.20747	0.24050
1882.27891	0.24025
1880.35034	0.24005
1878.42178	0.23992
1876.49321	0.23992
1874.56465	0.23992
1872.63608	0.23986
1870.70752	0.23981
1868.77896	0.24013
1866.85039	0.24060
1864.92183	0.24076
1862.99326	0.24082
1861.06470	0.24103
1859.13613	0.24143
1857.20757	0.24186
1855.27900	0.24228
1853.35044	0.24265
1851.42187	0.24306
1849.49331	0.24357
1847.56475	0.24419
1845.63618	0.24490
1843.70762	0.24584
1841.77905	0.24680
1839.85049	0.24745
1837.92192	0.24821
1835.99336	0.24908
1834.06479	0.24992
1832.13623	0.25071
1830.20767	0.25192
1828.27910	0.25348
1826.35054	0.25467
1824.42197	0.25592
1822.49341	0.25728
1820.56484	0.25861
1818.63628	0.26000
1816.70771	0.26162
1814.77915	0.26325
1812.85059	0.26489
1810.92202	0.26686
1808.99346	0.26902
1807.06489	0.27096
1805.13633	0.27276
1803.20776	0.27485
1801.27920	0.27726
1799.35063	0.28010
1797.42207	0.28284
1795.49351	0.28534
1793.56494	0.28802
1791.63638	0.29160
1789.70781	0.29533
1787.77925	0.29817
1785.85068	0.30130
1783.92212	0.30502
1781.99355	0.30897
1780.06499	0.31309
1778.13643	0.31728
1776.20786	0.32113
1774.27930	0.32513
1772.35073	0.33076
1770.42217	0.33747
1768.49360	0.34326
1766.56504	0.34866
1764.63647	0.35400
1762.70791	0.35975
1760.77935	0.36717
1758.85078	0.37423
1756.92222	0.38138
1754.99365	0.38928
1753.06509	0.39619
1751.13652	0.40420
1749.20796	0.41478
1747.27939	0.42549
1745.35083	0.43470
1743.42227	0.44429
1741.49370	0.45490
1739.56514	0.46747
1737.63657	0.48008
1735.70801	0.49080
1733.77944	0.50702
1731.85088	0.52726
1729.92231	0.54334
1727.99375	0.55941
1726.06519	0.57638
1724.13662	0.59490
1722.20806	0.61495
1720.27949	0.63303
1718.35093	0.65377
1716.42236	0.68604
1714.49380	0.71796
1712.56523	0.74319
1710.63667	0.76689
1708.70811	0.79204
1706.77954	0.82056
1704.85098	0.85490
1702.92241	0.88540
1700.99385	0.91450
1699.06528	0.95856
1697.13672	1.00005
1695.20815	1.04267
1693.27959	1.08300
1691.35103	1.11400
1689.42246	1.14956
1687.49390	1.18728
1685.56533	1.22281
1683.63677	1.27886
1681.70820	1.33902
1679.77964	1.37626
1677.85107	1.41085
1675.92251	1.45009
1673.99395	1.49944
1672.06538	1.54378
1670.13682	1.58657
1668.20825	1.64230
1666.27969	1.68653
1664.35112	1.72278
1662.42256	1.76678
1660.49399	1.81674
1658.56543	1.85568
1656.63687	1.88838
1654.70830	1.91931
1652.77974	1.97103
1650.85117	2.02451
1648.92261	2.04474
1646.99404	2.07402
1645.06548	2.11056
1643.13691	2.13456
1641.20835	2.14845
1639.27979	2.16099
1637.35122	2.16926
1635.42266	2.17395
1633.49409	2.17347
1631.56553	2.16333
1629.63696	2.14910
1627.70840	2.12568
1625.77983	2.09990
1623.85127	2.06629
1621.92271	2.02255
1619.99414	1.98279
1618.06558	1.94303
1616.13701	1.88442
1614.20845	1.82583
1612.27988	1.78308
1610.35132	1.73769
1608.42275	1.68683
1606.49419	1.63546
1604.56562	1.58803
1602.63706	1.54198
1600.70850	1.49624
1598.77993	1.45363
1596.85137	1.41322
1594.92280	1.37386
1592.99424	1.33583
1591.06567	1.30094
1589.13711	1.26801
1587.20854	1.23699
1585.27998	1.20768
1583.35142	1.17967
1581.42285	1.15371
1579.49429	1.13095
1577.56572	1.10946
1575.63716	1.08247
1573.70859	1.05929
1571.78003	1.04426
1569.85146	1.02702
1567.92290	1.00631
1565.99434	0.98979
1564.06577	0.97550
1562.13721	0.96324
1560.20864	0.95253
1558.28008	0.93284
1556.35151	0.91590
1554.42295	0.90645
1552.49438	0.89627
1550.56582	0.88590
1548.63726	0.87565
1546.70869	0.86668
1544.78013	0.85797
1542.85156	0.84875
1540.92300	0.83847
1538.99443	0.82418
1537.06587	0.81413
1535.13730	0.80747
1533.20874	0.79906
1531.28018	0.79036
1529.35161	0.78406
1527.42305	0.77779
1525.49448	0.77070
1523.56592	0.76411
1521.63735	0.75756
1519.70879	0.75070
1517.78022	0.74489
1515.85166	0.73897
1513.92310	0.73352
1511.99453	0.72905
1510.06597	0.72470
1508.13740	0.71996
1506.20884	0.71316
1504.28027	0.70830
1502.35171	0.70548
1500.42314	0.70248
1498.49458	0.69899
1496.56602	0.69520
1494.63745	0.69178
1492.70889	0.68900
1490.78032	0.68624
1488.85176	0.68294
1486.92319	0.67984
1484.99463	0.67708
1483.06606	0.67459
1481.13750	0.67233
1479.20894	0.67019
1477.28037	0.66808
1475.35181	0.66594
1473.42324	0.66376
1471.49468	0.66090
1469.56611	0.65796
1467.63755	0.65555
1465.70898	0.65349
1463.78042	0.65162
1461.85186	0.64987
1459.92329	0.64826
1457.99473	0.64654
1456.06616	0.64406
1454.13760	0.64140
1452.20903	0.63919
1450.28047	0.63702
1448.35190	0.63481
1446.42334	0.63270
1444.49478	0.63080
1442.56621	0.62900
1440.63765	0.62731
1438.70908	0.62581
1436.78052	0.62427
1434.85195	0.62272
1432.92339	0.62134
1430.99482	0.62005
1429.06626	0.61877
1427.13770	0.61760
1425.20913	0.61652
1423.28057	0.61542
1421.35200	0.61436
1419.42344	0.61331
1417.49487	0.61205
1415.56631	0.61047
1413.63774	0.60886
1411.70918	0.60732
1409.78062	0.60576
1407.85205	0.60414
1405.92349	0.60258
1403.99492	0.60105
1402.06636	0.59948
1400.13779	0.59793
1398.20923	0.59633
1396.28066	0.59485
1394.35210	0.59346
1392.42354	0.59195
1390.49497	0.59037
1388.56641	0.58893
1386.63784	0.58761
1384.70928	0.58628
1382.78071	0.58498
1380.85215	0.58381
1378.92358	0.58280
1376.99502	0.58186
1375.06646	0.58092
1373.13789	0.58009
1371.20933	0.57940
1369.28076	0.57879
1367.35220	0.57813
1365.42363	0.57721
1363.49507	0.57607
1361.56650	0.57501
1359.63794	0.57418
1357.70937	0.57341
1355.78081	0.57246
1353.85225	0.57138
1351.92368	0.57035
1349.99512	0.56936
1348.06655	0.56832
1346.13799	0.56730
1344.20942	0.56633
1342.28086	0.56528
1340.35229	0.56422
1338.42373	0.56320
1336.49517	0.56214
1334.56660	0.56107
1332.63804	0.56016
1330.70947	0.55950
1328.78091	0.55894
1326.85234	0.55823
1324.92378	0.55744
1322.99521	0.55683
1321.06665	0.55631
1319.13809	0.55576
1317.20952	0.55515
1315.28096	0.55445
1313.35239	0.55361
1311.42383	0.55266
1309.49526	0.55171
1307.56670	0.55073
1305.63813	0.54964
1303.70957	0.54865
1301.78101	0.54782
1299.85244	0.54681
1297.92388	0.54571
1295.99531	0.54483
1294.06675	0.54403
1292.13818	0.54322
1290.20962	0.54249
1288.28105	0.54192
1286.35249	0.54149
1284.42393	0.54105
1282.49536	0.54049
1280.56680	0.53986
1278.63823	0.53912
1276.70967	0.53824
1274.78110	0.53754
1272.85254	0.53714
1270.92397	0.53676
1268.99541	0.53631
1267.06685	0.53594
1265.13828	0.53563
1263.20972	0.53531
1261.28115	0.53502
1259.35259	0.53479
1257.42402	0.53446
1255.49546	0.53403
1253.56689	0.53374
1251.63833	0.53366
1249.70977	0.53356
1247.78120	0.53326
1245.85264	0.53283
1243.92407	0.53234
1241.99551	0.53177
1240.06694	0.53119
1238.13838	0.53063
1236.20981	0.53006
1234.28125	0.52947
1232.35269	0.52885
1230.42412	0.52815
1228.49556	0.52728
1226.56699	0.52634
1224.63843	0.52550
1222.70986	0.52480
1220.78130	0.52414
1218.85273	0.52345
1216.92417	0.52270
1214.99561	0.52189
1213.06704	0.52117
1211.13848	0.52061
1209.20991	0.52009
1207.28135	0.51954
1205.35278	0.51893
1203.42422	0.51820
1201.49565	0.51751
1199.56709	0.51699
1197.63853	0.51645
1195.70996	0.51585
1193.78140	0.51531
1191.85283	0.51480
1189.92427	0.51422
1187.99570	0.51366
1186.06714	0.51327
1184.13857	0.51301
1182.21001	0.51285
1180.28145	0.51306
1178.35288	0.51367
1176.42432	0.51433
1174.49575	0.51484
1172.56719	0.51533
1170.63862	0.51587
1168.71006	0.51640
1166.78149	0.51693
1164.85293	0.51743
1162.92437	0.51789
1160.99580	0.51829
1159.06724	0.51841
1157.13867	0.51817
1155.21011	0.51761
1153.28154	0.51673
1151.35298	0.51548
1149.42441	0.51369
1147.49585	0.51135
1145.56729	0.50870
1143.63872	0.50607
1141.71016	0.50365
1139.78159	0.50142
1137.85303	0.49947
1135.92446	0.49797
1133.99590	0.49682
1132.06733	0.49572
1130.13877	0.49466
1128.21021	0.49381
1126.28164	0.49313
1124.35308	0.49242
1122.42451	0.49159
1120.49595	0.49088
1118.56738	0.49047
1116.63882	0.49042
1114.71025	0.49061
1112.78169	0.49092
1110.85312	0.49142
1108.92456	0.49212
1106.99600	0.49281
1105.06743	0.49368
1103.13887	0.49500
1101.21030	0.49659
1099.28174	0.49814
1097.35317	0.49997
1095.42461	0.50269
1093.49604	0.50651
1091.56748	0.51132
1089.63892	0.51687
1087.71035	0.52319
1085.78179	0.53040
1083.85322	0.53803
1081.92466	0.54514
1079.99609	0.55083
1078.06753	0.55437
1076.13896	0.55515
1074.21040	0.55261
1072.28184	0.54738
1070.35327	0.54100
1068.42471	0.53445
1066.49614	0.52811
1064.56758	0.52214
1062.63901	0.51667
1060.71045	0.51184
1058.78188	0.50770
1056.85332	0.50418
1054.92476	0.50092
1052.99619	0.49795
1051.06763	0.49584
1049.13906	0.49467
1047.21050	0.49401
1045.28193	0.49370
1043.35337	0.49369
1041.42480	0.49368
1039.49624	0.49359
1037.56768	0.49353
1035.63911	0.49346
1033.71055	0.49321
1031.78198	0.49277
1029.85342	0.49201
1027.92485	0.49114
1025.99629	0.49055
1024.06772	0.49026
1022.13916	0.49004
1020.21060	0.48995
1018.28203	0.49016
1016.35347	0.49064
1014.42490	0.49108
1012.49634	0.49143
1010.56777	0.49194
1008.63921	0.49264
1006.71064	0.49347
1004.78208	0.49461
1002.85352	0.49639
1000.92495	0.49905
998.99639	0.50241
997.06782	0.50616
995.13926	0.51013
993.21069	0.51414
991.28213	0.51760
989.35356	0.51979
987.42500	0.52065
985.49644	0.52080
983.56787	0.52091
981.63931	0.52146
979.71074	0.52270
977.78218	0.52461
975.85361	0.52690
973.92505	0.52941
971.99648	0.53236
970.06792	0.53584
968.13936	0.53958
966.21079	0.54351
964.28223	0.54791
962.35366	0.55283
960.42510	0.55804
958.49653	0.56347
956.56797	0.56907
954.63940	0.57480
952.71084	0.58095
950.78228	0.58751
948.85371	0.59408
946.92515	0.60049
944.99658	0.60660
943.06802	0.61242
941.13945	0.61828
939.21089	0.62394
937.28232	0.62923
935.35376	0.63449
933.42520	0.64005
931.49663	0.64598
929.56807	0.65170
927.63950	0.65711
925.71094	0.66290
923.78237	0.66956
921.85381	0.67677
919.92524	0.68376
917.99668	0.69028
916.06812	0.69641
914.13955	0.70288
912.21099	0.71077
910.28242	0.71946
908.35386	0.72774
906.42529	0.73557
904.49673	0.74348
902.56816	0.75233
900.63960	0.76252
898.71104	0.77304
896.78247	0.78308
894.85391	0.79274
892.92534	0.80265
890.99678	0.81346
889.06821	0.82448
887.13965	0.83500
885.21108	0.84565
883.28252	0.85729
881.35396	0.86899
879.42539	0.87970
877.49683	0.88979
875.56826	0.89991
873.63970	0.91098
871.71113	0.92295
869.78257	0.93486
867.85400	0.94647
865.92544	0.95734
863.99687	0.96772
862.06831	0.97913
860.13975	0.99173
858.21118	1.00378
856.28262	1.01447
854.35405	1.02491
852.42549	1.03589
850.49692	1.04747
848.56836	1.05933
846.63979	1.07085
844.71123	1.08305
842.78267	1.09641
840.85410	1.10917
838.92554	1.12019
836.99697	1.12955
835.06841	1.13751
833.13984	1.14647
831.21128	1.15930
829.28271	1.17409
827.35415	1.18631
825.42559	1.19656
823.49702	1.20824
821.56846	1.22138
819.63989	1.23307
817.71133	1.23879
815.78276	1.24112
813.85420	1.24888
811.92563	1.26918
809.99707	1.29676
808.06851	1.31142
806.13994	1.31295
804.21138	1.31385
802.28281	1.31490
800.35425	1.31803
798.42568	1.32584
796.49712	1.34129
794.56855	1.35561
792.63999	1.35739
790.71143	1.36660
788.78286	1.37938
786.85430	1.36861
784.92573	1.35431
782.99717	1.33333
781.06860	1.31546
779.14004	1.35708
777.21147	1.44059
775.28291	1.44983
773.35435	1.38547
771.42578	1.34297
769.49722	1.36120
767.56865	1.43587
765.64009	1.47095
763.71152	1.46366
761.78296	1.55592
759.85439	1.68944
757.92583	1.61974
755.99727	1.53201
754.06870	1.47536
752.14014	1.45241
750.21157	1.49136
748.28301	1.37728
746.35444	1.16890
744.42588	1.01385
742.49731	0.93706
740.56875	1.00450
738.64019	1.27559
736.71162	1.66821
734.78306	1.39725
732.85449	1.09052
730.92593	0.99336
728.99736	0.91436
727.06880	0.76867
725.14023	0.62258
723.21167	0.45562
721.28311	0.31713
719.35454	0.26060
717.42598	0.22730
715.49741	0.11258
713.56885	-0.05595
711.64028	-0.20955
709.71172	-0.22312
707.78315	-0.01779
705.85459	0.07864
703.92603	0.06231
701.99746	0.03470
700.06890	0.05449
698.14033	0.09428
696.21177	0.11212
694.28320	0.10697
692.35464	0.08722
690.42607	0.08648
688.49751	0.10037
686.56895	0.17322
684.64038	0.36015
682.71182	0.47141
680.78325	0.40905
678.85469	0.35011
676.92612	0.29787
674.99756	0.21768
673.06899	0.15430
671.14043	0.14202
669.21187	0.14724
667.28330	0.12078
665.35474	0.09941
663.42617	0.13719
661.49761	0.20564
659.56904	0.22904
657.64048	0.17581
655.71191	0.05490
653.78335	0.03075
651.85479	0.15308
649.92622	0.24342
647.99766	0.21329
646.06909	0.20684
644.14053	0.34295
642.21196	0.41911
640.28340	0.28812
638.35483	0.19608
636.42627	0.19383
634.49771	0.31426
632.56914	0.34845
630.64058	0.15248
628.71201	0.16414
626.78345	0.33008
624.85488	0.35448
622.92632	0.19139
620.99775	0.09604
619.06919	0.15482
617.14062	0.33724
615.21206	0.38998
613.28350	0.31597
611.35493	0.30006
609.42637	0.28477
607.49780	0.24860
605.56924	0.25685
603.64067	0.25285
601.71211	0.18962
599.78354	0.15870
597.85498	0.21174
595.92642	0.30998
593.99785	0.32429
592.06929	0.32278
590.14072	0.32845
588.21216	0.24459
586.28359	0.14974
584.35503	0.13710
582.42646	0.18555
580.49790	0.20959
578.56934	0.17744
576.64077	0.14022
574.71221	0.13984
572.78364	0.23625
570.85508	0.49224
568.92651	0.51857
566.99795	0.24724
565.06938	0.17147
563.14082	0.21767
561.21226	0.27967
559.28369	0.21512
557.35513	0.07238
555.42656	-0.01788
553.49800	0.01176
551.56943	0.12055
549.64087	0.21294
547.71230	0.26463
545.78374	0.26001
543.85518	0.20628
541.92661	0.21769
539.99805	0.35537
538.06948	0.72322
536.14092	1.58842
534.21235	0.48225
532.28379	0.37376
530.35522	0.41338
528.42666	0.34527
526.49810	0.25966
524.56953	0.25659
522.64097	0.23418
520.71240	0.20360
518.78384	0.25873
516.85527	0.34214
514.92671	0.30406
512.99814	0.20213
511.06958	0.12258
509.14102	0.11660
507.21245	0.20544
505.28389	0.29604
503.35532	0.27619
501.42676	0.22344
499.49819	0.19701
