3997.91411	0.05863
3995.98555	0.05879
3994.05698	0.05923
3992.12842	0.05987
3990.19985	0.06042
3988.27129	0.06069
3986.34272	0.06067
3984.41416	0.06095
3982.48560	0.06165
3980.55703	0.06218
3978.62847	0.06232
3976.69990	0.06239
3974.77134	0.06279
3972.84277	0.06353
3970.91421	0.06406
3968.98564	0.06378
3967.05708	0.06301
3965.12852	0.06260
3963.19995	0.06309
3961.27139	0.06411
3959.34282	0.06462
3957.41426	0.06452
3955.48569	0.06438
3953.55713	0.06406
3951.62856	0.06365
3949.70000	0.06399
3947.77144	0.06508
3945.84287	0.06560
3943.91431	0.06552
3941.98574	0.06562
3940.05718	0.06547
3938.12861	0.06491
3936.20005	0.06447
3934.27148	0.06485
3932.34292	0.06614
3930.41436	0.06702
3928.48579	0.06651
3926.55723	0.06566
3924.62866	0.06559
3922.70010	0.06573
3920.77153	0.06548
3918.84297	0.06557
3916.91440	0.06585
3914.98584	0.06529
3913.05728	0.06427
3911.12871	0.06367
3909.20015	0.06350
3907.27158	0.06391
3905.34302	0.06532
3903.41445	0.06726
3901.48589	0.06832
3899.55732	0.06809
3897.62876	0.06687
3895.70020	0.06531
3893.77163	0.06479
3891.84307	0.06594
3889.91450	0.06706
3887.98594	0.06647
3886.05737	0.06606
3884.12881	0.06699
3882.20024	0.06795
3880.27168	0.06846
3878.34312	0.06795
3876.41455	0.06670
3874.48599	0.06679
3872.55742	0.06828
3870.62886	0.06978
3868.70029	0.07071
3866.77173	0.07057
3864.84316	0.07087
3862.91460	0.07184
3860.98604	0.07132
3859.05747	0.07016
3857.12891	0.07021
3855.20034	0.07161
3853.27178	0.07459
3851.34321	0.07630
3849.41465	0.07419
3847.48608	0.07224
3845.55752	0.07171
3843.62896	0.07281
3841.70039	0.07535
3839.77183	0.07810
3837.84326	0.08007
3835.91470	0.08027
3833.98613	0.07941
3832.05757	0.07893
3830.12900	0.07865
3828.20044	0.07864
3826.27187	0.07972
3824.34331	0.08114
3822.41475	0.08240
3820.48618	0.08481
3818.55762	0.08660
3816.62905	0.08687
3814.70049	0.08696
3812.77192	0.08596
3810.84336	0.08501
3808.91479	0.08583
3806.98623	0.08869
3805.05767	0.09147
3803.12910	0.09287
3801.20054	0.09541
3799.27197	0.09797
3797.34341	0.09801
3795.41484	0.09753
3793.48628	0.09705
3791.55771	0.09675
3789.62915	0.09727
3787.70059	0.09843
3785.77202	0.10018
3783.84346	0.10236
3781.91489	0.10412
3779.98633	0.10608
3778.05776	0.10843
3776.12920	0.10910
3774.20063	0.10892
3772.27207	0.11009
3770.34351	0.11319
3768.41494	0.11706
3766.48638	0.11952
3764.55781	0.12088
3762.62925	0.12214
3760.70068	0.12442
3758.77212	0.12824
3756.84355	0.13153
3754.91499	0.13313
3752.98643	0.13559
3751.05786	0.14132
3749.12930	0.14823
3747.20073	0.15092
3745.27217	0.15225
3743.34360	0.15566
3741.41504	0.15887
3739.48647	0.16103
3737.55791	0.16483
3735.62935	0.17171
3733.70078	0.17929
3731.77222	0.18338
3729.84365	0.18550
3727.91509	0.18835
3725.98652	0.19334
3724.05796	0.20009
3722.12939	0.20714
3720.20083	0.21381
3718.27227	0.21993
3716.34370	0.22633
3714.41514	0.23364
3712.48657	0.24375
3710.55801	0.25897
3708.62944	0.27405
3706.70088	0.28472
3704.77231	0.29491
3702.84375	0.30785
3700.91519	0.32523
3698.98662	0.34363
3697.05806	0.36079
3695.12949	0.37986
3693.20093	0.40059
3691.27236	0.42312
3689.34380	0.45272
3687.41523	0.48867
3685.48667	0.51805
3683.55811	0.54239
3681.62954	0.56946
3679.70098	0.60152
3677.77241	0.63624
3675.84385	0.67800
3673.91528	0.73367
3671.98672	0.77606
3670.05815	0.81349
3668.12959	0.86813
3666.20103	0.91691
3664.27246	0.95625
3662.34390	0.99904
3660.41533	1.04647
3658.48677	1.09394
3656.55820	1.14484
3654.62964	1.20142
3652.70107	1.24790
3650.77251	1.28823
3648.84395	1.34630
3646.91538	1.41814
3644.98682	1.46735
3643.05825	1.50424
3641.12969	1.54365
3639.20112	1.58832
3637.27256	1.63361
3635.34399	1.67745
3633.41543	1.72108
3631.48687	1.76218
3629.55830	1.80501
3627.62974	1.86342
3625.70117	1.91568
3623.77261	1.94739
3621.84404	1.97803
3619.91548	2.01576
3617.98691	2.06381
3616.05835	2.10955
3614.12979	2.14633
3612.20122	2.18554
3610.27266	2.22536
3608.34409	2.26513
3606.41553	2.30751
3604.48696	2.34596
3602.55840	2.38063
3600.62983	2.42045
3598.70127	2.46350
3596.77271	2.50331
3594.84414	2.54466
3592.91558	2.58785
3590.98701	2.62502
3589.05845	2.65844
3587.12988	2.70226
3585.20132	2.75254
3583.27275	2.79354
3581.34419	2.83056
3579.41562	2.87048
3577.48706	2.91318
3575.55850	2.95609
3573.62993	2.99860
3571.70137	3.03979
3569.77280	3.08035
3567.84424	3.12394
3565.91567	3.17739
3563.98711	3.22878
3562.05854	3.27004
3560.12998	3.31097
3558.20142	3.35344
3556.27285	3.39729
3554.34429	3.44334
3552.41572	3.49250
3550.48716	3.54183
3548.55859	3.58766
3546.63003	3.63121
3544.70146	3.67791
3542.77290	3.72700
3540.84434	3.77244
3538.91577	3.81574
3536.98721	3.86141
3535.05864	3.91168
3533.13008	3.96063
3531.20151	4.00645
3529.27295	4.05451
3527.34438	4.10549
3525.41582	4.15397
3523.48726	4.20108
3521.55869	4.25198
3519.63013	4.30385
3517.70156	4.35472
3515.77300	4.40415
3513.84443	4.45228
3511.91587	4.50005
3509.98730	4.54864
3508.05874	4.59734
3506.13018	4.64271
3504.20161	4.68741
3502.27305	4.73806
3500.34448	4.79094
3498.41592	4.83783
3496.48735	4.88341
3494.55879	4.93329
3492.63022	4.98433
3490.70166	5.03035
3488.77310	5.07079
3486.84453	5.11423
3484.91597	5.16545
3482.98740	5.21715
3481.05884	5.26200
3479.13027	5.30391
3477.20171	5.35416
3475.27314	5.41009
3473.34458	5.46017
3471.41602	5.50575
3469.48745	5.55493
3467.55889	5.61031
3465.63032	5.66786
3463.70176	5.72036
3461.77319	5.76522
3459.84463	5.81190
3457.91606	5.87009
3455.98750	5.93797
3454.05894	5.99772
3452.13037	6.03873
3450.20181	6.07341
3448.27324	6.11810
3446.34468	6.17522
3444.41611	6.22405
3442.48755	6.27110
3440.55898	6.32411
3438.63042	6.35632
3436.70186	6.38231
3434.77329	6.45051
3432.84473	6.54198
3430.91616	6.61489
3428.98760	6.67287
3427.05903	6.70845
3425.13047	6.73733
3423.20190	6.77478
3421.27334	6.81728
3419.34478	6.86356
3417.41621	6.91527
3415.48765	6.97081
3413.55908	7.00510
3411.63052	7.02006
3409.70195	7.03326
3407.77339	7.07444
3405.84482	7.15502
3403.91626	7.24824
3401.98770	7.28410
3400.05913	7.24257
3398.13057	7.23550
3396.20200	7.33044
3394.27344	7.46559
3392.34487	7.55110
3390.41631	7.60117
3388.48774	7.62647
3386.55918	7.62070
3384.63062	7.63536
3382.70205	7.70454
3380.77349	7.77725
3378.84492	7.80445
3376.91636	7.81639
3374.98779	7.83660
3373.05923	7.86501
3371.13066	7.87126
3369.20210	7.88335
3367.27354	7.89700
3365.34497	7.87898
3363.41641	7.89788
3361.48784	7.97847
3359.55928	8.02584
3357.63071	7.97615
3355.70215	7.92377
3353.77358	7.94808
3351.84502	8.04682
3349.91646	8.12780
3347.98789	8.13199
3346.05933	8.08921
3344.13076	8.05996
3342.20220	8.10719
3340.27363	8.17904
3338.34507	8.22162
3336.41650	8.24447
3334.48794	8.27674
3332.55937	8.26305
3330.63081	8.17504
3328.70225	8.10065
3326.77368	8.07195
3324.84512	8.07136
3322.91655	8.08597
3320.98799	8.10543
3319.05942	8.15243
3317.13086	8.27805
3315.20229	8.37665
3313.27373	8.37649
3311.34517	8.33998
3309.41660	8.27309
3307.48804	8.21517
3305.55947	8.17662
3303.63091	8.17753
3301.70234	8.22967
3299.77378	8.27903
3297.84521	8.34822
3295.91665	8.48651
3293.98809	8.54078
3292.05952	8.45740
3290.13096	8.42662
3288.20239	8.49491
3286.27383	8.52394
3284.34526	8.45842
3282.41670	8.43159
3280.48813	8.42459
3278.55957	8.39665
3276.63101	8.40731
3274.70244	8.48607
3272.77388	8.60312
3270.84531	8.57599
3268.91675	8.42902
3266.98818	8.37098
3265.05962	8.38927
3263.13105	8.33902
3261.20249	8.22695
3259.27393	8.19301
3257.34536	8.32499
3255.41680	8.50314
3253.48823	8.54805
3251.55967	8.51660
3249.63110	8.43280
3247.70254	8.33120
3245.77397	8.26690
3243.84541	8.21938
3241.91685	8.25161
3239.98828	8.37432
3238.05972	8.44376
3236.13115	8.39234
3234.20259	8.31261
3232.27402	8.26247
3230.34546	8.23327
3228.41689	8.25770
3226.48833	8.33968
3224.55977	8.37177
3222.63120	8.31038
3220.70264	8.20998
3218.77407	8.08658
3216.84551	7.99775
3214.91694	8.03402
3212.98838	8.12919
3211.05981	8.13725
3209.13125	8.09335
3207.20269	8.07751
3205.27412	8.09768
3203.34556	8.12322
3201.41699	8.11809
3199.48843	8.10680
3197.55986	8.02879
3195.63130	7.84927
3193.70273	7.70379
3191.77417	7.63033
3189.84561	7.59841
3187.91704	7.59303
3185.98848	7.59761
3184.05991	7.57859
3182.13135	7.47436
3180.20278	7.34800
3178.27422	7.28963
3176.34565	7.25834
3174.41709	7.20008
3172.48853	7.11868
3170.55996	7.02283
3168.63140	6.94779
3166.70283	6.89945
3164.77427	6.84361
3162.84570	6.78602
3160.91714	6.72548
3158.98857	6.65847
3157.06001	6.59704
3155.13145	6.52924
3153.20288	6.45405
3151.27432	6.39512
3149.34575	6.33950
3147.41719	6.26153
3145.48862	6.18631
3143.56006	6.13109
3141.63149	6.06895
3139.70293	5.98204
3137.77437	5.88969
3135.84580	5.81068
3133.91724	5.74941
3131.98867	5.70164
3130.06011	5.65057
3128.13154	5.58725
3126.20298	5.51473
3124.27441	5.43857
3122.34585	5.36144
3120.41729	5.28399
3118.48872	5.20711
3116.56016	5.13214
3114.63159	5.06514
3112.70303	5.00315
3110.77446	4.93320
3108.84590	4.85676
3106.91733	4.78384
3104.98877	4.71585
3103.06021	4.65430
3101.13164	4.59705
3099.20308	4.53263
3097.27451	4.46010
3095.34595	4.39108
3093.41738	4.32768
3091.48882	4.26442
3089.56025	4.20045
3087.63169	4.13647
3085.70312	4.07205
3083.77456	4.00823
3081.84600	3.94876
3079.91743	3.89169
3077.98887	3.83354
3076.06030	3.77805
3074.13174	3.72455
3072.20317	3.66722
3070.27461	3.60657
3068.34604	3.54669
3066.41748	3.48886
3064.48892	3.43270
3062.56035	3.37704
3060.63179	3.32254
3058.70322	3.27039
3056.77466	3.21844
3054.84609	3.16557
3052.91753	3.11343
3050.98896	3.06340
3049.06040	3.01454
3047.13184	2.96520
3045.20327	2.91564
3043.27471	2.86647
3041.34614	2.81814
3039.41758	2.77146
3037.48901	2.72598
3035.56045	2.68057
3033.63188	2.63531
3031.70332	2.59078
3029.77476	2.54794
3027.84619	2.50601
3025.91763	2.46241
3023.98906	2.41855
3022.06050	2.37693
3020.13193	2.33655
3018.20337	2.29656
3016.27480	2.25690
3014.34624	2.21727
3012.41768	2.17819
3010.48911	2.14038
3008.56055	2.10359
3006.63198	2.06705
3004.70342	2.03070
3002.77485	1.99499
3000.84629	1.96024
2998.91772	1.92682
2996.98916	1.89490
2995.06060	1.86375
2993.13203	1.83263
2991.20347	1.80165
2989.27490	1.77120
2987.34634	1.74158
2985.41777	1.71288
2983.48921	1.68468
2981.56064	1.65655
2979.63208	1.62866
2977.70352	1.60131
2975.77495	1.57486
2973.84639	1.54948
2971.91782	1.52483
2969.98926	1.50045
2968.06069	1.47572
2966.13213	1.45042
2964.20356	1.42517
2962.27500	1.40070
2960.34644	1.37692
2958.41787	1.35312
2956.48931	1.32924
2954.56074	1.30586
2952.63218	1.28317
2950.70361	1.26048
2948.77505	1.23721
2946.84648	1.21431
2944.91792	1.19274
2942.98936	1.17172
2941.06079	1.15068
2939.13223	1.12979
2937.20366	1.10887
2935.27510	1.08774
2933.34653	1.06664
2931.41797	1.04602
2929.48940	1.02620
2927.56084	1.00713
2925.63228	0.98836
2923.70371	0.97016
2921.77515	0.95290
2919.84658	0.93575
2917.91802	0.91853
2915.98945	0.90233
2914.06089	0.88712
2912.13232	0.87199
2910.20376	0.85693
2908.27520	0.84223
2906.34663	0.82764
2904.41807	0.81317
2902.48950	0.79914
2900.56094	0.78569
2898.63237	0.77284
2896.70381	0.76030
2894.77524	0.74766
2892.84668	0.73514
2890.91812	0.72315
2888.98955	0.71172
2887.06099	0.70085
2885.13242	0.69046
2883.20386	0.68025
2881.27529	0.67015
2879.34673	0.66025
2877.41816	0.65038
2875.48960	0.64036
2873.56104	0.63012
2871.63247	0.61947
2869.70391	0.60853
2867.77534	0.59727
2865.84678	0.58529
2863.91821	0.57304
2861.98965	0.56138
2860.06108	0.55028
2858.13252	0.53955
2856.20396	0.52929
2854.27539	0.51962
2852.34683	0.51058
2850.41826	0.50217
2848.48970	0.49433
2846.56113	0.48679
2844.63257	0.47955
2842.70400	0.47297
2840.77544	0.46712
2838.84687	0.46161
2836.91831	0.45602
2834.98975	0.45015
2833.06118	0.44428
2831.13262	0.43857
2829.20405	0.43291
2827.27549	0.42720
2825.34692	0.42143
2823.41836	0.41564
2821.48979	0.40976
2819.56123	0.40381
2817.63267	0.39799
2815.70410	0.39224
2813.77554	0.38643
2811.84697	0.38077
2809.91841	0.37543
2807.98984	0.37023
2806.06128	0.36507
2804.13271	0.35996
2802.20415	0.35491
2800.27559	0.34989
2798.34702	0.34501
2796.41846	0.34019
2794.48989	0.33523
2792.56133	0.33028
2790.63276	0.32553
2788.70420	0.32101
2786.77563	0.31668
2784.84707	0.31245
2782.91851	0.30820
2780.98994	0.30408
2779.06138	0.30026
2777.13281	0.29652
2775.20425	0.29267
2773.27568	0.28878
2771.34712	0.28481
2769.41855	0.28089
2767.48999	0.27724
2765.56143	0.27379
2763.63286	0.27038
2761.70430	0.26693
2759.77573	0.26349
2757.84717	0.26021
2755.91860	0.25708
2753.99004	0.25393
2752.06147	0.25084
2750.13291	0.24778
2748.20435	0.24464
2746.27578	0.24171
2744.34722	0.23910
2742.41865	0.23650
2740.49009	0.23371
2738.56152	0.23083
2736.63296	0.22809
2734.70439	0.22561
2732.77583	0.22321
2730.84727	0.22075
2728.91870	0.21836
2726.99014	0.21610
2725.06157	0.21390
2723.13301	0.21174
2721.20444	0.20957
2719.27588	0.20741
2717.34731	0.20540
2715.41875	0.20348
2713.49019	0.20154
2711.56162	0.19965
2709.63306	0.19793
2707.70449	0.19629
2705.77593	0.19468
2703.84736	0.19312
2701.91880	0.19164
2699.99023	0.19016
2698.06167	0.18853
2696.13311	0.18687
2694.20454	0.18535
2692.27598	0.18387
2690.34741	0.18247
2688.41885	0.18121
2686.49028	0.18001
2684.56172	0.17888
2682.63315	0.17776
2680.70459	0.17653
2678.77603	0.17520
2676.84746	0.17394
2674.91890	0.17290
2672.99033	0.17195
2671.06177	0.17085
2669.13320	0.16961
2667.20464	0.16849
2665.27607	0.16766
2663.34751	0.16700
2661.41895	0.16621
2659.49038	0.16522
2657.56182	0.16419
2655.63325	0.16326
2653.70469	0.16245
2651.77612	0.16177
2649.84756	0.16131
2647.91899	0.16090
2645.99043	0.16036
2644.06187	0.15980
2642.13330	0.15937
2640.20474	0.15887
2638.27617	0.15828
2636.34761	0.15769
2634.41904	0.15699
2632.49048	0.15638
2630.56191	0.15597
2628.63335	0.15560
2626.70479	0.15524
2624.77622	0.15487
2622.84766	0.15445
2620.91909	0.15405
2618.99053	0.15376
2617.06196	0.15353
2615.13340	0.15333
2613.20483	0.15317
2611.27627	0.15300
2609.34771	0.15276
2607.41914	0.15271
2605.49058	0.15281
2603.56201	0.15276
2601.63345	0.15270
2599.70488	0.15272
2597.77632	0.15279
2595.84775	0.15279
2593.91919	0.15277
2591.99062	0.15285
2590.06206	0.15290
2588.13350	0.15289
2586.20493	0.15298
2584.27637	0.15325
2582.34780	0.15363
2580.41924	0.15394
2578.49067	0.15409
2576.56211	0.15418
2574.63354	0.15435
2572.70498	0.15466
2570.77642	0.15505
2568.84785	0.15542
2566.91929	0.15590
2564.99072	0.15650
2563.06216	0.15699
2561.13359	0.15732
2559.20503	0.15763
2557.27646	0.15808
2555.34790	0.15856
2553.41934	0.15900
2551.49077	0.15950
2549.56221	0.16009
2547.63364	0.16059
2545.70508	0.16104
2543.77651	0.16154
2541.84795	0.16212
2539.91938	0.16274
2537.99082	0.16339
2536.06226	0.16398
2534.13369	0.16448
2532.20513	0.16507
2530.27656	0.16583
2528.34800	0.16655
2526.41943	0.16713
2524.49087	0.16772
2522.56230	0.16844
2520.63374	0.16934
2518.70518	0.17031
2516.77661	0.17108
2514.84805	0.17178
2512.91948	0.17256
2510.99092	0.17334
2509.06235	0.17413
2507.13379	0.17498
2505.20522	0.17573
2503.27666	0.17637
2501.34810	0.17704
2499.41953	0.17782
2497.49097	0.17866
2495.56240	0.17949
2493.63384	0.18037
2491.70527	0.18134
2489.77671	0.18233
2487.84814	0.18330
2485.91958	0.18417
2483.99102	0.18500
2482.06245	0.18591
2480.13389	0.18681
2478.20532	0.18760
2476.27676	0.18820
2474.34819	0.18881
2472.41963	0.18967
2470.49106	0.19081
2468.56250	0.19196
2466.63394	0.19280
2464.70537	0.19346
2462.77681	0.19435
2460.84824	0.19547
2458.91968	0.19649
2456.99111	0.19734
2455.06255	0.19825
2453.13398	0.19925
2451.20542	0.20024
2449.27686	0.20119
2447.34829	0.20212
2445.41973	0.20298
2443.49116	0.20385
2441.56260	0.20490
2439.63403	0.20599
2437.70547	0.20699
2435.77690	0.20803
2433.84834	0.20909
2431.91978	0.21012
2429.99121	0.21114
2428.06265	0.21212
2426.13408	0.21323
2424.20552	0.21440
2422.27695	0.21544
2420.34839	0.21655
2418.41982	0.21782
2416.49126	0.21904
2414.56270	0.22021
2412.63413	0.22147
2410.70557	0.22269
2408.77700	0.22375
2406.84844	0.22470
2404.91987	0.22573
2402.99131	0.22685
2401.06274	0.22793
2399.13418	0.22915
2397.20562	0.23053
2395.27705	0.23184
2393.34849	0.23304
2391.41992	0.23431
2389.49136	0.23576
2387.56279	0.23737
2385.63423	0.23914
2383.70566	0.24129
2381.77710	0.24402
2379.84854	0.24730
2377.91997	0.25091
2375.99141	0.25491
2374.06284	0.25962
2372.13428	0.26497
2370.20571	0.27042
2368.27715	0.27536
2366.34858	0.28032
2364.42002	0.28617
2362.49146	0.29157
2360.56289	0.29459
2358.63433	0.29572
2356.70576	0.29565
2354.77720	0.29366
2352.84863	0.29042
2350.92007	0.28692
2348.99150	0.28465
2347.06294	0.28522
2345.13437	0.28936
2343.20581	0.29534
2341.27725	0.29920
2339.34868	0.30010
2337.42012	0.30007
2335.49155	0.30095
2333.56299	0.30244
2331.63442	0.30379
2329.70586	0.30477
2327.77729	0.30555
2325.84873	0.30638
2323.92017	0.30687
2321.99160	0.30661
2320.06304	0.30610
2318.13447	0.30591
2316.20591	0.30616
2314.27734	0.30689
2312.34878	0.30790
2310.42021	0.30868
2308.49165	0.30918
2306.56309	0.30992
2304.63452	0.31094
2302.70596	0.31205
2300.77739	0.31320
2298.84883	0.31438
2296.92026	0.31573
2294.99170	0.31724
2293.06313	0.31880
2291.13457	0.32026
2289.20601	0.32164
2287.27744	0.32304
2285.34888	0.32456
2283.42031	0.32621
2281.49175	0.32804
2279.56318	0.33008
2277.63462	0.33227
2275.70605	0.33454
2273.77749	0.33677
2271.84893	0.33891
2269.92036	0.34098
2267.99180	0.34312
2266.06323	0.34533
2264.13467	0.34741
2262.20610	0.34943
2260.27754	0.35143
2258.34897	0.35345
2256.42041	0.35562
2254.49185	0.35777
2252.56328	0.35980
2250.63472	0.36189
2248.70615	0.36407
2246.77759	0.36623
2244.84902	0.36846
2242.92046	0.37074
2240.99189	0.37289
2239.06333	0.37498
2237.13477	0.37718
2235.20620	0.37936
2233.27764	0.38147
2231.34907	0.38362
2229.42051	0.38591
2227.49194	0.38834
2225.56338	0.39068
2223.63481	0.39291
2221.70625	0.39523
2219.77769	0.39757
2217.84912	0.39971
2215.92056	0.40171
2213.99199	0.40373
2212.06343	0.40582
2210.13486	0.40799
2208.20630	0.41021
2206.27773	0.41236
2204.34917	0.41441
2202.42061	0.41646
2200.49204	0.41857
2198.56348	0.42065
2196.63491	0.42272
2194.70635	0.42479
2192.77778	0.42678
2190.84922	0.42865
2188.92065	0.43045
2186.99209	0.43221
2185.06353	0.43394
2183.13496	0.43571
2181.20640	0.43744
2179.27783	0.43898
2177.34927	0.44051
2175.42070	0.44216
2173.49214	0.44382
2171.56357	0.44536
2169.63501	0.44675
2167.70645	0.44796
2165.77788	0.44909
2163.84932	0.45031
2161.92075	0.45152
2159.99219	0.45260
2158.06362	0.45362
2156.13506	0.45459
2154.20649	0.45551
2152.27793	0.45642
2150.34937	0.45724
2148.42080	0.45792
2146.49224	0.45846
2144.56367	0.45891
2142.63511	0.45941
2140.70654	0.45988
2138.77798	0.46023
2136.84941	0.46045
2134.92085	0.46061
2132.99229	0.46059
2131.06372	0.46037
2129.13516	0.46014
2127.20659	0.45997
2125.27803	0.45974
2123.34946	0.45939
2121.42090	0.45898
2119.49233	0.45848
2117.56377	0.45785
2115.63521	0.45718
2113.70664	0.45641
2111.77808	0.45545
2109.84951	0.45447
2107.92095	0.45346
2105.99238	0.45233
2104.06382	0.45120
2102.13525	0.45004
2100.20669	0.44879
2098.27812	0.44741
2096.34956	0.44591
2094.42100	0.44434
2092.49243	0.44270
2090.56387	0.44101
2088.63530	0.43936
2086.70674	0.43771
2084.77817	0.43595
2082.84961	0.43406
2080.92104	0.43206
2078.99248	0.43001
2077.06392	0.42786
2075.13535	0.42567
2073.20679	0.42351
2071.27822	0.42132
2069.34966	0.41911
2067.42109	0.41690
2065.49253	0.41463
2063.56396	0.41224
2061.63540	0.40981
2059.70684	0.40732
2057.77827	0.40473
2055.84971	0.40212
2053.92114	0.39960
2051.99258	0.39709
2050.06401	0.39444
2048.13545	0.39170
2046.20688	0.38894
2044.27832	0.38625
2042.34976	0.38368
2040.42119	0.38107
2038.49263	0.37830
2036.56406	0.37549
2034.63550	0.37271
2032.70693	0.36993
2030.77837	0.36719
2028.84980	0.36452
2026.92124	0.36189
2024.99268	0.35912
2023.06411	0.35619
2021.13555	0.35328
2019.20698	0.35052
2017.27842	0.34784
2015.34985	0.34507
2013.42129	0.34231
2011.49272	0.33963
2009.56416	0.33692
2007.63560	0.33413
2005.70703	0.33133
2003.77847	0.32856
2001.84990	0.32579
1999.92134	0.32306
1997.99277	0.32047
1996.06421	0.31800
1994.13564	0.31560
1992.20708	0.31323
1990.27852	0.31077
1988.34995	0.30826
1986.42139	0.30571
1984.49282	0.30316
1982.56426	0.30071
1980.63569	0.29830
1978.70713	0.29594
1976.77856	0.29364
1974.85000	0.29139
1972.92144	0.28924
1970.99287	0.28718
1969.06431	0.28521
1967.13574	0.28331
1965.20718	0.28126
1963.27861	0.27910
1961.35005	0.27704
1959.42148	0.27506
1957.49292	0.27312
1955.56436	0.27128
1953.63579	0.26956
1951.70723	0.26786
1949.77866	0.26615
1947.85010	0.26447
1945.92153	0.26298
1943.99297	0.26170
1942.06440	0.26025
1940.13584	0.25841
1938.20728	0.25662
1936.27871	0.25518
1934.35015	0.25392
1932.42158	0.25267
1930.49302	0.25140
1928.56445	0.25025
1926.63589	0.24924
1924.70732	0.24843
1922.77876	0.24773
1920.85020	0.24685
1918.92163	0.24597
1916.99307	0.24505
1915.06450	0.24382
1913.13594	0.24277
1911.20737	0.24220
1909.27881	0.24168
1907.35024	0.24088
1905.42168	0.24000
1903.49312	0.23924
1901.56455	0.23854
1899.63599	0.23792
1897.70742	0.23749
1895.77886	0.23723
1893.85029	0.23701
1891.92173	0.23675
1889.99316	0.23667
1888.06460	0.23642
1886.13604	0.23584
1884.20747	0.23539
1882.27891	0.23523
1880.35034	0.23518
1878.42178	0.23511
1876.49321	0.23502
1874.56465	0.23493
1872.63608	0.23499
1870.70752	0.23551
1868.77896	0.23658
1866.85039	0.23700
1864.92183	0.23639
1862.99326	0.23592
1861.06470	0.23595
1859.13613	0.23632
1857.20757	0.23677
1855.27900	0.23725
1853.35044	0.23770
1851.42187	0.23822
1849.49331	0.23890
1847.56475	0.23979
1845.63618	0.24096
1843.70762	0.24223
1841.77905	0.24283
1839.85049	0.24290
1837.92192	0.24347
1835.99336	0.24444
1834.06479	0.24544
1832.13623	0.24664
1830.20767	0.24851
1828.27910	0.25019
1826.35054	0.25101
1824.42197	0.25206
1822.49341	0.25307
1820.56484	0.25398
1818.63628	0.25522
1816.70771	0.25680
1814.77915	0.25843
1812.85059	0.26037
1810.92202	0.26268
1808.99346	0.26478
1807.06489	0.26656
1805.13633	0.26836
1803.20776	0.27062
1801.27920	0.27337
1799.35063	0.27636
1797.42207	0.27889
1795.49351	0.28130
1793.56494	0.28429
1791.63638	0.28816
1789.70781	0.29136
1787.77925	0.29350
1785.85068	0.29648
1783.92212	0.30031
1781.99355	0.30440
1780.06499	0.30863
1778.13643	0.31279
1776.20786	0.31676
1774.27930	0.32145
1772.35073	0.32809
1770.42217	0.33465
1768.49360	0.33927
1766.56504	0.34370
1764.63647	0.34868
1762.70791	0.35464
1760.77935	0.36225
1758.85078	0.36915
1756.92222	0.37612
1754.99365	0.38372
1753.06509	0.39049
1751.13652	0.39892
1749.20796	0.40998
1747.27939	0.42039
1745.35083	0.42898
1743.42227	0.43820
1741.49370	0.44862
1739.56514	0.46096
1737.63657	0.47327
1735.70801	0.48418
1733.77944	0.50112
1731.85088	0.52111
1729.92231	0.53619
1727.99375	0.55146
1726.06519	0.56799
1724.13662	0.58642
1722.20806	0.60657
1720.27949	0.62512
1718.35093	0.64707
1716.42236	0.68029
1714.49380	0.71143
1712.56523	0.73555
1710.63667	0.75872
1708.70811	0.78395
1706.77954	0.81319
1704.85098	0.84894
1702.92241	0.88065
1700.99385	0.91122
1699.06528	0.95808
1697.13672	1.00186
1695.20815	1.04605
1693.27959	1.08822
1691.35103	1.12206
1689.42246	1.16232
1687.49390	1.20543
1685.56533	1.24668
1683.63677	1.31229
1681.70820	1.38102
1679.77964	1.42309
1677.85107	1.46319
1675.92251	1.50925
1673.99395	1.56754
1672.06538	1.62031
1670.13682	1.67225
1668.20825	1.74147
1666.27969	1.79682
1664.35112	1.84341
1662.42256	1.90398
1660.49399	1.97553
1658.56543	2.03106
1656.63687	2.07550
1654.70830	2.11654
1652.77974	2.18216
1650.85117	2.24356
1648.92261	2.26486
1646.99404	2.29316
1645.06548	2.31468
1643.13691	2.32617
1641.20835	2.33418
1639.27979	2.34418
1637.35122	2.34986
1635.42266	2.34656
1633.49409	2.33742
1631.56553	2.32474
1629.63696	2.30964
1627.70840	2.28068
1625.77983	2.24513
1623.85127	2.20044
1621.92271	2.14691
1619.99414	2.10088
1618.06558	2.05701
1616.13701	1.99241
1614.20845	1.92546
1612.27988	1.87451
1610.35132	1.82115
1608.42275	1.76412
1606.49419	1.70890
1604.56562	1.65833
1602.63706	1.60914
1600.70850	1.56125
1598.77993	1.51760
1596.85137	1.47669
1594.92280	1.43674
1592.99424	1.39794
1591.06567	1.36238
1589.13711	1.32936
1587.20854	1.29933
1585.27998	1.27198
1583.35142	1.24633
1581.42285	1.22277
1579.49429	1.20324
1577.56572	1.18703
1575.63716	1.16733
1573.70859	1.14926
1571.78003	1.13774
1569.85146	1.12661
1567.92290	1.11485
1565.99434	1.10699
1564.06577	1.10169
1562.13721	1.09768
1560.20864	1.09611
1558.28008	1.09828
1556.35151	1.10109
1554.42295	1.10243
1552.49438	1.10390
1550.56582	1.10359
1548.63726	1.10037
1546.70869	1.09508
1544.78013	1.08766
1542.85156	1.07734
1540.92300	1.05979
1538.99443	1.02751
1537.06587	1.00359
1535.13730	0.98860
1533.20874	0.96904
1531.28018	0.94780
1529.35161	0.93253
1527.42305	0.91859
1525.49448	0.90432
1523.56592	0.89216
1521.63735	0.88034
1519.70879	0.86780
1517.78022	0.85711
1515.85166	0.84457
1513.92310	0.83164
1511.99453	0.82102
1510.06597	0.81198
1508.13740	0.80351
1506.20884	0.78825
1504.28027	0.77411
1502.35171	0.76647
1500.42314	0.76020
1498.49458	0.75385
1496.56602	0.74621
1494.63745	0.73825
1492.70889	0.73250
1490.78032	0.72828
1488.85176	0.72315
1486.92319	0.71710
1484.99463	0.71219
1483.06606	0.70891
1481.13750	0.70672
1479.20894	0.70520
1477.28037	0.70452
1475.35181	0.70477
1473.42324	0.70527
1471.49468	0.70412
1469.56611	0.70146
1467.63755	0.69911
1465.70898	0.69749
1463.78042	0.69626
1461.85186	0.69531
1459.92329	0.69537
1457.99473	0.69670
1456.06616	0.69659
1454.13760	0.69327
1452.20903	0.68983
1450.28047	0.68674
1448.35190	0.68386
1446.42334	0.68092
1444.49478	0.67796
1442.56621	0.67508
1440.63765	0.67232
1438.70908	0.66985
1436.78052	0.66702
1434.85195	0.66341
1432.92339	0.66041
1430.99482	0.65866
1429.06626	0.65782
1427.13770	0.65746
1425.20913	0.65787
1423.28057	0.65898
1421.35200	0.65979
1419.42344	0.66049
1417.49487	0.66076
1415.56631	0.65971
1413.63774	0.65865
1411.70918	0.65837
1409.78062	0.65879
1407.85205	0.65971
1405.92349	0.66119
1403.99492	0.66269
1402.06636	0.66317
1400.13779	0.66278
1398.20923	0.66148
1396.28066	0.65886
1394.35210	0.65487
1392.42354	0.65019
1390.49497	0.64589
1388.56641	0.64183
1386.63784	0.63706
1384.70928	0.63159
1382.78071	0.62643
1380.85215	0.62191
1378.92358	0.61818
1376.99502	0.61534
1375.06646	0.61338
1373.13789	0.61199
1371.20933	0.61109
1369.28076	0.61052
1367.35220	0.60960
1365.42363	0.60818
1363.49507	0.60673
1361.56650	0.60530
1359.63794	0.60374
1357.70937	0.60229
1355.78081	0.60093
1353.85225	0.59966
1351.92368	0.59864
1349.99512	0.59792
1348.06655	0.59725
1346.13799	0.59638
1344.20942	0.59547
1342.28086	0.59483
1340.35229	0.59459
1338.42373	0.59427
1336.49517	0.59348
1334.56660	0.59265
1332.63804	0.59222
1330.70947	0.59228
1328.78091	0.59275
1326.85234	0.59342
1324.92378	0.59416
1322.99521	0.59500
1321.06665	0.59586
1319.13809	0.59664
1317.20952	0.59715
1315.28096	0.59718
1313.35239	0.59680
1311.42383	0.59620
1309.49526	0.59550
1307.56670	0.59479
1305.63813	0.59411
1303.70957	0.59335
1301.78101	0.59244
1299.85244	0.59143
1297.92388	0.59031
1295.99531	0.58906
1294.06675	0.58781
1292.13818	0.58648
1290.20962	0.58505
1288.28105	0.58379
1286.35249	0.58260
1284.42393	0.58118
1282.49536	0.57965
1280.56680	0.57817
1278.63823	0.57674
1276.70967	0.57545
1274.78110	0.57438
1272.85254	0.57348
1270.92397	0.57271
1268.99541	0.57194
1267.06685	0.57108
1265.13828	0.57016
1263.20972	0.56921
1261.28115	0.56830
1259.35259	0.56753
1257.42402	0.56691
1255.49546	0.56651
1253.56689	0.56639
1251.63833	0.56653
1249.70977	0.56681
1247.78120	0.56702
1245.85264	0.56695
1243.92407	0.56643
1241.99551	0.56555
1240.06694	0.56440
1238.13838	0.56283
1236.20981	0.56069
1234.28125	0.55831
1232.35269	0.55604
1230.42412	0.55389
1228.49556	0.55181
1226.56699	0.54979
1224.63843	0.54796
1222.70986	0.54633
1220.78130	0.54476
1218.85273	0.54322
1216.92417	0.54190
1214.99561	0.54087
1213.06704	0.53991
1211.13848	0.53908
1209.20991	0.53848
1207.28135	0.53786
1205.35278	0.53697
1203.42422	0.53595
1201.49565	0.53505
1199.56709	0.53421
1197.63853	0.53331
1195.70996	0.53253
1193.78140	0.53209
1191.85283	0.53187
1189.92427	0.53154
1187.99570	0.53098
1186.06714	0.53059
1184.13857	0.53065
1182.21001	0.53109
1180.28145	0.53197
1178.35288	0.53340
1176.42432	0.53503
1174.49575	0.53631
1172.56719	0.53699
1170.63862	0.53729
1168.71006	0.53738
1166.78149	0.53734
1164.85293	0.53731
1162.92437	0.53724
1160.99580	0.53693
1159.06724	0.53642
1157.13867	0.53577
1155.21011	0.53480
1153.28154	0.53336
1151.35298	0.53159
1149.42441	0.52953
1147.49585	0.52716
1145.56729	0.52452
1143.63872	0.52174
1141.71016	0.51922
1139.78159	0.51729
1137.85303	0.51606
1135.92446	0.51526
1133.99590	0.51452
1132.06733	0.51401
1130.13877	0.51393
1128.21021	0.51390
1126.28164	0.51350
1124.35308	0.51287
1122.42451	0.51235
1120.49595	0.51197
1118.56738	0.51163
1116.63882	0.51145
1114.71025	0.51161
1112.78169	0.51199
1110.85312	0.51236
1108.92456	0.51292
1106.99600	0.51393
1105.06743	0.51516
1103.13887	0.51622
1101.21030	0.51731
1099.28174	0.51891
1097.35317	0.52116
1095.42461	0.52392
1093.49604	0.52727
1091.56748	0.53157
1089.63892	0.53711
1087.71035	0.54383
1085.78179	0.55110
1083.85322	0.55820
1081.92466	0.56475
1079.99609	0.57013
1078.06753	0.57321
1076.13896	0.57331
1074.21040	0.57061
1072.28184	0.56565
1070.35327	0.55924
1068.42471	0.55229
1066.49614	0.54548
1064.56758	0.53916
1062.63901	0.53347
1060.71045	0.52844
1058.78188	0.52395
1056.85332	0.51997
1054.92476	0.51659
1052.99619	0.51369
1051.06763	0.51113
1049.13906	0.50905
1047.21050	0.50764
1045.28193	0.50675
1043.35337	0.50609
1041.42480	0.50542
1039.49624	0.50479
1037.56768	0.50439
1035.63911	0.50401
1033.71055	0.50332
1031.78198	0.50240
1029.85342	0.50140
1027.92485	0.50028
1025.99629	0.49924
1024.06772	0.49850
1022.13916	0.49802
1020.21060	0.49785
1018.28203	0.49800
1016.35347	0.49824
1014.42490	0.49845
1012.49634	0.49879
1010.56777	0.49936
1008.63921	0.50004
1006.71064	0.50093
1004.78208	0.50226
1002.85352	0.50402
1000.92495	0.50638
998.99639	0.50971
997.06782	0.51387
995.13926	0.51830
993.21069	0.52242
991.28213	0.52576
989.35356	0.52796
987.42500	0.52897
985.49644	0.52916
983.56787	0.52919
981.63931	0.52960
979.71074	0.53047
977.78218	0.53187
975.85361	0.53395
973.92505	0.53646
971.99648	0.53927
970.06792	0.54266
968.13936	0.54666
966.21079	0.55091
964.28223	0.55502
962.35366	0.55901
960.42510	0.56357
958.49653	0.56889
956.56797	0.57453
954.63940	0.58042
952.71084	0.58669
950.78228	0.59313
948.85371	0.59946
946.92515	0.60544
944.99658	0.61137
943.06802	0.61778
941.13945	0.62466
939.21089	0.63140
937.28232	0.63739
935.35376	0.64265
933.42520	0.64781
931.49663	0.65315
929.56807	0.65849
927.63950	0.66391
925.71094	0.66979
923.78237	0.67611
921.85381	0.68247
919.92524	0.68901
917.99668	0.69598
916.06812	0.70339
914.13955	0.71124
912.21099	0.71895
910.28242	0.72626
908.35386	0.73379
906.42529	0.74205
904.49673	0.75130
902.56816	0.76096
900.63960	0.77057
898.71104	0.78045
896.78247	0.79062
894.85391	0.80118
892.92534	0.81211
890.99678	0.82257
889.06821	0.83197
887.13965	0.84084
885.21108	0.85114
883.28252	0.86337
881.35396	0.87553
879.42539	0.88744
877.49683	0.89904
875.56826	0.90947
873.63970	0.92075
871.71113	0.93447
869.78257	0.94814
867.85400	0.95928
865.92544	0.96943
863.99687	0.98148
862.06831	0.99499
860.13975	1.00657
858.21118	1.01642
856.28262	1.02847
854.35405	1.04226
852.42549	1.05437
850.49692	1.06573
848.56836	1.07760
846.63979	1.08850
844.71123	1.09912
842.78267	1.11116
840.85410	1.12445
838.92554	1.13749
836.99697	1.14958
835.06841	1.16127
833.13984	1.17351
831.21128	1.18626
829.28271	1.19811
827.35415	1.21033
825.42559	1.22154
823.49702	1.22651
821.56846	1.23385
819.63989	1.25498
817.71133	1.27918
815.78276	1.29316
813.85420	1.29807
811.92563	1.30255
809.99707	1.31757
808.06851	1.33875
806.13994	1.35600
804.21138	1.37005
802.28281	1.38625
800.35425	1.40407
798.42568	1.41972
796.49712	1.43507
794.56855	1.46479
792.63999	1.54786
790.71143	1.66596
788.78286	1.68827
786.85430	1.66381
784.92573	1.67837
782.99717	1.69392
781.06860	1.69017
779.14004	1.67084
777.21147	1.68146
775.28291	1.84257
773.35435	2.32554
771.42578	2.35779
769.49722	1.97923
767.56865	1.95710
765.64009	1.70115
763.71152	1.50269
761.78296	1.52768
759.85439	1.59768
757.92583	1.47164
755.99727	1.36200
754.06870	1.46251
752.14014	4.51284
750.21157	2.20820
748.28301	1.25984
746.35444	1.07096
744.42588	1.05887
742.49731	1.09407
740.56875	1.09532
738.64019	1.15835
736.71162	1.86255
734.78306	4.40870
732.85449	1.02870
730.92593	0.81102
728.99736	0.71806
727.06880	0.54725
725.14023	0.43327
723.21167	0.35343
721.28311	0.04192
719.35454	-0.00088
717.42598	0.11435
715.49741	0.19891
713.56885	0.28847
711.64028	0.37640
709.71172	0.35065
707.78315	0.26957
705.85459	0.34005
703.92603	0.47601
701.99746	0.45311
700.06890	0.44089
698.14033	0.51489
696.21177	0.53549
694.28320	0.49257
692.35464	0.46778
690.42607	0.54741
688.49751	0.74674
686.56895	1.01831
684.64038	1.35682
682.71182	0.86736
680.78325	0.60105
678.85469	0.52857
676.92612	0.47676
674.99756	0.41188
673.06899	0.35201
671.14043	0.28568
669.21187	0.25212
667.28330	0.28824
665.35474	0.40871
663.42617	0.56095
661.49761	0.51381
659.56904	0.38831
657.64048	0.33658
655.71191	0.32670
653.78335	0.33968
651.85479	0.42497
649.92622	0.56567
647.99766	0.66510
646.06909	0.62971
644.14053	0.52211
642.21196	0.41748
640.28340	0.37287
638.35483	0.39259
636.42627	0.42046
634.49771	0.39721
632.56914	0.33707
630.64058	0.31066
628.71201	0.35163
626.78345	0.43759
624.85488	0.50914
622.92632	0.52035
620.99775	0.49643
619.06919	0.45602
617.14062	0.41286
615.21206	0.38884
613.28350	0.39283
611.35493	0.37412
609.42637	0.33012
607.49780	0.35174
605.56924	0.46156
603.64067	0.60789
601.71211	0.55180
599.78354	0.38482
597.85498	0.30312
595.92642	0.29296
593.99785	0.30127
592.06929	0.30474
590.14072	0.29848
588.21216	0.30665
586.28359	0.34132
584.35503	0.35773
582.42646	0.36038
580.49790	0.41136
578.56934	0.50058
576.64077	0.48380
574.71221	0.41682
572.78364	0.43060
570.85508	0.46702
568.92651	0.34750
566.99795	0.23177
565.06938	0.22534
563.14082	0.26153
561.21226	0.30761
559.28369	0.37767
557.35513	0.40331
555.42656	0.37108
553.49800	0.34763
551.56943	0.32964
549.64087	0.33723
547.71230	0.38658
545.78374	0.39879
543.85518	0.38682
541.92661	0.39049
539.99805	0.36284
538.06948	0.31541
536.14092	0.30242
534.21235	0.34169
532.28379	0.33134
530.35522	0.29352
528.42666	0.37832
526.49810	0.56559
524.56953	0.50623
522.64097	0.37571
520.71240	0.30510
518.78384	0.25657
516.85527	0.25991
514.92671	0.32291
512.99814	0.38056
511.06958	0.39152
509.14102	0.40744
507.21245	0.44055
505.28389	0.39284
503.35532	0.30560
501.42676	0.26856
499.49819	0.31230
