3997.91411	0.08844
3995.98555	0.08904
3994.05698	0.08949
3992.12842	0.08990
3990.19985	0.09048
3988.27129	0.09104
3986.34272	0.09124
3984.41416	0.09132
3982.48560	0.09142
3980.55703	0.09157
3978.62847	0.09199
3976.69990	0.09269
3974.77134	0.09323
3972.84277	0.09309
3970.91421	0.09251
3968.98564	0.09214
3967.05708	0.09236
3965.12852	0.09294
3963.19995	0.09362
3961.27139	0.09412
3959.34282	0.09406
3957.41426	0.09380
3955.48569	0.09394
3953.55713	0.09438
3951.62856	0.09497
3949.70000	0.09572
3947.77144	0.09623
3945.84287	0.09612
3943.91431	0.09595
3941.98574	0.09587
3940.05718	0.09532
3938.12861	0.09467
3936.20005	0.09441
3934.27148	0.09472
3932.34292	0.09586
3930.41436	0.09682
3928.48579	0.09625
3926.55723	0.09552
3924.62866	0.09605
3922.70010	0.09656
3920.77153	0.09609
3918.84297	0.09598
3916.91440	0.09648
3914.98584	0.09605
3913.05728	0.09458
3911.12871	0.09335
3909.20015	0.09289
3907.27158	0.09385
3905.34302	0.09673
3903.41445	0.09999
3901.48589	0.10086
3899.55732	0.09928
3897.62876	0.09679
3895.70020	0.09512
3893.77163	0.09529
3891.84307	0.09681
3889.91450	0.09769
3887.98594	0.09717
3886.05737	0.09727
3884.12881	0.09836
3882.20024	0.09908
3880.27168	0.09902
3878.34312	0.09743
3876.41455	0.09590
3874.48599	0.09692
3872.55742	0.09977
3870.62886	0.10217
3868.70029	0.10267
3866.77173	0.10166
3864.84316	0.10226
3862.91460	0.10390
3860.98604	0.10270
3859.05747	0.10046
3857.12891	0.10093
3855.20034	0.10448
3853.27178	0.10945
3851.34321	0.11028
3849.41465	0.10628
3847.48608	0.10315
3845.55752	0.10251
3843.62896	0.10420
3841.70039	0.10700
3839.77183	0.11003
3837.84326	0.11235
3835.91470	0.11205
3833.98613	0.11048
3832.05757	0.10967
3830.12900	0.10938
3828.20044	0.10947
3826.27187	0.11038
3824.34331	0.11172
3822.41475	0.11392
3820.48618	0.11747
3818.55762	0.11920
3816.62905	0.11894
3814.70049	0.11785
3812.77192	0.11553
3810.84336	0.11435
3808.91479	0.11569
3806.98623	0.11914
3805.05767	0.12234
3803.12910	0.12421
3801.20054	0.12643
3799.27197	0.12778
3797.34341	0.12746
3795.41484	0.12667
3793.48628	0.12549
3791.55771	0.12493
3789.62915	0.12559
3787.70059	0.12714
3785.77202	0.12952
3783.84346	0.13203
3781.91489	0.13398
3779.98633	0.13614
3778.05776	0.13812
3776.12920	0.13848
3774.20063	0.13870
3772.27207	0.14071
3770.34351	0.14450
3768.41494	0.14796
3766.48638	0.14957
3764.55781	0.15059
3762.62925	0.15188
3760.70068	0.15449
3758.77212	0.15866
3756.84355	0.16235
3754.91499	0.16510
3752.98643	0.16925
3751.05786	0.17609
3749.12930	0.18163
3747.20073	0.18282
3745.27217	0.18473
3743.34360	0.18860
3741.41504	0.19161
3739.48647	0.19474
3737.55791	0.20050
3735.62935	0.20956
3733.70078	0.21792
3731.77222	0.22102
3729.84365	0.22279
3727.91509	0.22659
3725.98652	0.23265
3724.05796	0.23928
3722.12939	0.24497
3720.20083	0.25008
3718.27227	0.25473
3716.34370	0.25969
3714.41514	0.26657
3712.48657	0.27782
3710.55801	0.29437
3708.62944	0.30920
3706.70088	0.31909
3704.77231	0.32930
3702.84375	0.34288
3700.91519	0.36043
3698.98662	0.37843
3697.05806	0.39502
3695.12949	0.41320
3693.20093	0.43350
3691.27236	0.45672
3689.34380	0.48699
3687.41523	0.52147
3685.48667	0.54920
3683.55811	0.57366
3681.62954	0.60131
3679.70098	0.63345
3677.77241	0.66830
3675.84385	0.71009
3673.91528	0.76476
3671.98672	0.80778
3670.05815	0.84679
3668.12959	0.89997
3666.20103	0.94625
3664.27246	0.98504
3662.34390	1.02832
3660.41533	1.07630
3658.48677	1.12413
3656.55820	1.17463
3654.62964	1.22996
3652.70107	1.27623
3650.77251	1.31838
3648.84395	1.37939
3646.91538	1.45187
3644.98682	1.50010
3643.05825	1.53652
3641.12969	1.57563
3639.20112	1.62013
3637.27256	1.66577
3635.34399	1.71070
3633.41543	1.75557
3631.48687	1.79765
3629.55830	1.84084
3627.62974	1.89758
3625.70117	1.94879
3623.77261	1.98213
3621.84404	2.01488
3619.91548	2.05373
3617.98691	2.10050
3616.05835	2.14375
3614.12979	2.17968
3612.20122	2.21880
3610.27266	2.25875
3608.34409	2.30009
3606.41553	2.34454
3604.48696	2.38396
3602.55840	2.41846
3600.62983	2.45725
3598.70127	2.49980
3596.77271	2.54061
3594.84414	2.58240
3592.91558	2.62457
3590.98701	2.66152
3589.05845	2.69651
3587.12988	2.74254
3585.20132	2.79336
3583.27275	2.83257
3581.34419	2.86796
3579.41562	2.90766
3577.48706	2.95073
3575.55850	2.99383
3573.62993	3.03690
3571.70137	3.07960
3569.77280	3.12284
3567.84424	3.16961
3565.91567	3.22463
3563.98711	3.27602
3562.05854	3.31677
3560.12998	3.35649
3558.20142	3.39768
3556.27285	3.44027
3554.34429	3.48497
3552.41572	3.53275
3550.48716	3.58079
3548.55859	3.62687
3546.63003	3.67362
3544.70146	3.72395
3542.77290	3.77298
3540.84434	3.81693
3538.91577	3.86061
3536.98721	3.90762
3535.05864	3.95794
3533.13008	4.00545
3531.20151	4.05056
3529.27295	4.10082
3527.34438	4.15580
3525.41582	4.20649
3523.48726	4.25152
3521.55869	4.29705
3519.63013	4.34575
3517.70156	4.39767
3515.77300	4.44881
3513.84443	4.49551
3511.91587	4.53694
3509.98730	4.57898
3508.05874	4.62767
3506.13018	4.67825
3504.20161	4.72855
3502.27305	4.78161
3500.34448	4.83244
3498.41592	4.87813
3496.48735	4.92663
3494.55879	4.97893
3492.63022	5.02661
3490.70166	5.06769
3488.77310	5.11252
3486.84453	5.16777
3484.91597	5.22014
3482.98740	5.25877
3481.05884	5.29501
3479.13027	5.34463
3477.20171	5.40648
3475.27314	5.46136
3473.34458	5.50313
3471.41602	5.54468
3469.48745	5.59023
3467.55889	5.64403
3465.63032	5.70476
3463.70176	5.75971
3461.77319	5.80652
3459.84463	5.85153
3457.91606	5.90104
3455.98750	5.95382
3454.05894	5.99677
3452.13037	6.03190
3450.20181	6.07983
3448.27324	6.15217
3446.34468	6.22776
3444.41611	6.27935
3442.48755	6.33183
3440.55898	6.38528
3438.63042	6.42070
3436.70186	6.46155
3434.77329	6.51399
3432.84473	6.56244
3430.91616	6.61746
3428.98760	6.68629
3427.05903	6.73757
3425.13047	6.77947
3423.20190	6.84653
3421.27334	6.91608
3419.34478	6.94109
3417.41621	6.95736
3415.48765	7.01330
3413.55908	7.08927
3411.63052	7.17453
3409.70195	7.23813
3407.77339	7.24928
3405.84482	7.24716
3403.91626	7.28826
3401.98770	7.35652
3400.05913	7.40198
3398.13057	7.40970
3396.20200	7.40195
3394.27344	7.43760
3392.34487	7.51006
3390.41631	7.56535
3388.48774	7.58535
3386.55918	7.59348
3384.63062	7.61704
3382.70205	7.68399
3380.77349	7.76580
3378.84492	7.77268
3376.91636	7.74157
3374.98779	7.79294
3373.05923	7.93032
3371.13066	7.99169
3369.20210	7.93666
3367.27354	7.91118
3365.34497	7.94975
3363.41641	7.98531
3361.48784	8.01313
3359.55928	8.05490
3357.63071	8.08409
3355.70215	8.06558
3353.77358	8.00944
3351.84502	8.01433
3349.91646	8.09810
3347.98789	8.15166
3346.05933	8.12575
3344.13076	8.15172
3342.20220	8.25954
3340.27363	8.28264
3338.34507	8.23249
3336.41650	8.22401
3334.48794	8.27295
3332.55937	8.29459
3330.63081	8.24924
3328.70225	8.22330
3326.77368	8.26551
3324.84512	8.32825
3322.91655	8.38031
3320.98799	8.40192
3319.05942	8.36129
3317.13086	8.36574
3315.20229	8.39730
3313.27373	8.36448
3311.34517	8.32686
3309.41660	8.30171
3307.48804	8.31320
3305.55947	8.42268
3303.63091	8.54246
3301.70234	8.53968
3299.77378	8.45983
3297.84521	8.38328
3295.91665	8.39334
3293.98809	8.46859
3292.05952	8.50402
3290.13096	8.46594
3288.20239	8.37735
3286.27383	8.32598
3284.34526	8.31833
3282.41670	8.29027
3280.48813	8.31755
3278.55957	8.49324
3276.63101	8.62013
3274.70244	8.52661
3272.77388	8.41628
3270.84531	8.39064
3268.91675	8.36825
3266.98818	8.37952
3265.05962	8.53248
3263.13105	8.71067
3261.20249	8.71030
3259.27393	8.58986
3257.34536	8.53828
3255.41680	8.55681
3253.48823	8.55592
3251.55967	8.54220
3249.63110	8.42936
3247.70254	8.26064
3245.77397	8.21993
3243.84541	8.27757
3241.91685	8.30798
3239.98828	8.35075
3238.05972	8.42439
3236.13115	8.40720
3234.20259	8.31791
3232.27402	8.30399
3230.34546	8.32447
3228.41689	8.30001
3226.48833	8.32590
3224.55977	8.34225
3222.63120	8.23645
3220.70264	8.17057
3218.77407	8.22770
3216.84551	8.24545
3214.91694	8.16971
3212.98838	8.11251
3211.05981	8.10067
3209.13125	8.10854
3207.20269	8.08720
3205.27412	8.00512
3203.34556	7.89968
3201.41699	7.84497
3199.48843	7.85033
3197.55986	7.85710
3195.63130	7.82901
3193.70273	7.77393
3191.77417	7.73797
3189.84561	7.68198
3187.91704	7.57014
3185.98848	7.50542
3184.05991	7.51084
3182.13135	7.49579
3180.20278	7.42151
3178.27422	7.32188
3176.34565	7.25262
3174.41709	7.22861
3172.48853	7.19798
3170.55996	7.12748
3168.63140	7.04779
3166.70283	6.97939
3164.77427	6.92139
3162.84570	6.88272
3160.91714	6.83602
3158.98857	6.75382
3157.06001	6.67494
3155.13145	6.60821
3153.20288	6.52435
3151.27432	6.45114
3149.34575	6.40995
3147.41719	6.37275
3145.48862	6.31624
3143.56006	6.23094
3141.63149	6.13098
3139.70293	6.04679
3137.77437	5.98289
3135.84580	5.91649
3133.91724	5.84479
3131.98867	5.78000
3130.06011	5.71527
3128.13154	5.64711
3126.20298	5.57516
3124.27441	5.49325
3122.34585	5.40784
3120.41729	5.32935
3118.48872	5.26397
3116.56016	5.20881
3114.63159	5.14584
3112.70303	5.07370
3110.77446	5.00536
3108.84590	4.93921
3106.91733	4.87215
3104.98877	4.80536
3103.06021	4.73935
3101.13164	4.67187
3099.20308	4.60012
3097.27451	4.52927
3095.34595	4.46400
3093.41738	4.40059
3091.48882	4.33629
3089.56025	4.27260
3087.63169	4.20956
3085.70312	4.14627
3083.77456	4.08376
3081.84600	4.02358
3079.91743	3.96511
3077.98887	3.90608
3076.06030	3.84417
3074.13174	3.78071
3072.20317	3.71977
3070.27461	3.66267
3068.34604	3.60821
3066.41748	3.55373
3064.48892	3.49755
3062.56035	3.44123
3060.63179	3.38698
3058.70322	3.33442
3056.77466	3.28136
3054.84609	3.22695
3052.91753	3.17293
3050.98896	3.12106
3049.06040	3.07121
3047.13184	3.02236
3045.20327	2.97376
3043.27471	2.92630
3041.34614	2.87900
3039.41758	2.83023
3037.48901	2.78240
3035.56045	2.73654
3033.63188	2.69093
3031.70332	2.64534
3029.77476	2.60080
3027.84619	2.55821
3025.91763	2.51636
3023.98906	2.47313
3022.06050	2.42894
3020.13193	2.38548
3018.20337	2.34347
3016.27480	2.30297
3014.34624	2.26355
3012.41768	2.22482
3010.48911	2.18656
3008.56055	2.14877
3006.63198	2.11201
3004.70342	2.07643
3002.77485	2.04151
3000.84629	2.00720
2998.91772	1.97370
2996.98916	1.94083
2995.06060	1.90854
2993.13203	1.87698
2991.20347	1.84605
2989.27490	1.81561
2987.34634	1.78577
2985.41777	1.75674
2983.48921	1.72851
2981.56064	1.70110
2979.63208	1.67419
2977.70352	1.64709
2975.77495	1.61971
2973.84639	1.59248
2971.91782	1.56590
2969.98926	1.54007
2968.06069	1.51437
2966.13213	1.48825
2964.20356	1.46180
2962.27500	1.43590
2960.34644	1.41083
2958.41787	1.38592
2956.48931	1.36115
2954.56074	1.33723
2952.63218	1.31442
2950.70361	1.29187
2948.77505	1.26892
2946.84648	1.24615
2944.91792	1.22382
2942.98936	1.20131
2941.06079	1.17851
2939.13223	1.15541
2937.20366	1.13163
2935.27510	1.10738
2933.34653	1.08293
2931.41797	1.05788
2929.48940	1.03270
2927.56084	1.00844
2925.63228	0.98481
2923.70371	0.96136
2921.77515	0.93894
2919.84658	0.91861
2917.91802	0.90098
2915.98945	0.88682
2914.06089	0.87666
2912.13232	0.86956
2910.20376	0.86310
2908.27520	0.85481
2906.34663	0.84414
2904.41807	0.83253
2902.48950	0.82074
2900.56094	0.80847
2898.63237	0.79616
2896.70381	0.78444
2894.77524	0.77300
2892.84668	0.76158
2890.91812	0.75060
2888.98955	0.74018
2887.06099	0.72992
2885.13242	0.71990
2883.20386	0.71033
2881.27529	0.70096
2879.34673	0.69149
2877.41816	0.68160
2875.48960	0.67122
2873.56104	0.66038
2871.63247	0.64907
2869.70391	0.63739
2867.77534	0.62525
2865.84678	0.61237
2863.91821	0.59894
2861.98965	0.58523
2860.06108	0.57100
2858.13252	0.55635
2856.20396	0.54151
2854.27539	0.52653
2852.34683	0.51220
2850.41826	0.50043
2848.48970	0.49367
2846.56113	0.49233
2844.63257	0.49327
2842.70400	0.49332
2840.77544	0.49172
2838.84687	0.48882
2836.91831	0.48480
2834.98975	0.47995
2833.06118	0.47479
2831.13262	0.46951
2829.20405	0.46406
2827.27549	0.45840
2825.34692	0.45244
2823.41836	0.44631
2821.48979	0.44036
2819.56123	0.43465
2817.63267	0.42896
2815.70410	0.42318
2813.77554	0.41739
2811.84697	0.41178
2809.91841	0.40641
2807.98984	0.40112
2806.06128	0.39585
2804.13271	0.39054
2802.20415	0.38513
2800.27559	0.37992
2798.34702	0.37516
2796.41846	0.37051
2794.48989	0.36566
2792.56133	0.36087
2790.63276	0.35613
2788.70420	0.35133
2786.77563	0.34668
2784.84707	0.34224
2782.91851	0.33798
2780.98994	0.33390
2779.06138	0.32986
2777.13281	0.32574
2775.20425	0.32160
2773.27568	0.31752
2771.34712	0.31359
2769.41855	0.30989
2767.48999	0.30629
2765.56143	0.30272
2763.63286	0.29928
2761.70430	0.29589
2759.77573	0.29231
2757.84717	0.28866
2755.91860	0.28523
2753.99004	0.28210
2752.06147	0.27915
2750.13291	0.27618
2748.20435	0.27314
2746.27578	0.27018
2744.34722	0.26721
2742.41865	0.26424
2740.49009	0.26138
2738.56152	0.25869
2736.63296	0.25612
2734.70439	0.25351
2732.77583	0.25083
2730.84727	0.24827
2728.91870	0.24580
2726.99014	0.24335
2725.06157	0.24102
2723.13301	0.23883
2721.20444	0.23678
2719.27588	0.23473
2717.34731	0.23250
2715.41875	0.23024
2713.49019	0.22820
2711.56162	0.22647
2709.63306	0.22485
2707.70449	0.22315
2705.77593	0.22142
2703.84736	0.21971
2701.91880	0.21805
2699.99023	0.21643
2698.06167	0.21480
2696.13311	0.21333
2694.20454	0.21197
2692.27598	0.21052
2690.34741	0.20909
2688.41885	0.20778
2686.49028	0.20637
2684.56172	0.20481
2682.63315	0.20341
2680.70459	0.20229
2678.77603	0.20111
2676.84746	0.19983
2674.91890	0.19856
2672.99033	0.19734
2671.06177	0.19619
2669.13320	0.19513
2667.20464	0.19423
2665.27607	0.19338
2663.34751	0.19240
2661.41895	0.19133
2659.49038	0.19038
2657.56182	0.18959
2655.63325	0.18882
2653.70469	0.18796
2651.77612	0.18713
2649.84756	0.18645
2647.91899	0.18574
2645.99043	0.18489
2644.06187	0.18406
2642.13330	0.18339
2640.20474	0.18290
2638.27617	0.18252
2636.34761	0.18202
2634.41904	0.18143
2632.49048	0.18097
2630.56191	0.18057
2628.63335	0.18005
2626.70479	0.17956
2624.77622	0.17922
2622.84766	0.17894
2620.91909	0.17861
2618.99053	0.17831
2617.06196	0.17813
2615.13340	0.17794
2613.20483	0.17765
2611.27627	0.17734
2609.34771	0.17706
2607.41914	0.17687
2605.49058	0.17676
2603.56201	0.17671
2601.63345	0.17670
2599.70488	0.17671
2597.77632	0.17675
2595.84775	0.17672
2593.91919	0.17652
2591.99062	0.17642
2590.06206	0.17658
2588.13350	0.17679
2586.20493	0.17693
2584.27637	0.17708
2582.34780	0.17726
2580.41924	0.17746
2578.49067	0.17777
2576.56211	0.17813
2574.63354	0.17838
2572.70498	0.17852
2570.77642	0.17866
2568.84785	0.17893
2566.91929	0.17937
2564.99072	0.17988
2563.06216	0.18026
2561.13359	0.18049
2559.20503	0.18081
2557.27646	0.18129
2555.34790	0.18182
2553.41934	0.18235
2551.49077	0.18290
2549.56221	0.18342
2547.63364	0.18388
2545.70508	0.18436
2543.77651	0.18488
2541.84795	0.18540
2539.91938	0.18577
2537.99082	0.18615
2536.06226	0.18675
2534.13369	0.18746
2532.20513	0.18820
2530.27656	0.18897
2528.34800	0.18958
2526.41943	0.19014
2524.49087	0.19092
2522.56230	0.19177
2520.63374	0.19257
2518.70518	0.19330
2516.77661	0.19395
2514.84805	0.19456
2512.91948	0.19524
2510.99092	0.19605
2509.06235	0.19691
2507.13379	0.19771
2505.20522	0.19847
2503.27666	0.19924
2501.34810	0.20003
2499.41953	0.20079
2497.49097	0.20148
2495.56240	0.20225
2493.63384	0.20314
2491.70527	0.20399
2489.77671	0.20470
2487.84814	0.20547
2485.91958	0.20642
2483.99102	0.20733
2482.06245	0.20813
2480.13389	0.20896
2478.20532	0.20974
2476.27676	0.21050
2474.34819	0.21140
2472.41963	0.21240
2470.49106	0.21327
2468.56250	0.21396
2466.63394	0.21470
2464.70537	0.21568
2462.77681	0.21675
2460.84824	0.21772
2458.91968	0.21865
2456.99111	0.21958
2455.06255	0.22045
2453.13398	0.22127
2451.20542	0.22209
2449.27686	0.22301
2447.34829	0.22412
2445.41973	0.22532
2443.49116	0.22633
2441.56260	0.22712
2439.63403	0.22797
2437.70547	0.22907
2435.77690	0.23028
2433.84834	0.23133
2431.91978	0.23216
2429.99121	0.23299
2428.06265	0.23397
2426.13408	0.23503
2424.20552	0.23604
2422.27695	0.23705
2420.34839	0.23813
2418.41982	0.23924
2416.49126	0.24039
2414.56270	0.24153
2412.63413	0.24263
2410.70557	0.24373
2408.77700	0.24486
2406.84844	0.24601
2404.91987	0.24717
2402.99131	0.24834
2401.06274	0.24958
2399.13418	0.25087
2397.20562	0.25216
2395.27705	0.25334
2393.34849	0.25449
2391.41992	0.25577
2389.49136	0.25729
2387.56279	0.25945
2385.63423	0.26281
2383.70566	0.26765
2381.77710	0.27387
2379.84854	0.28130
2377.91997	0.28991
2375.99141	0.29978
2374.06284	0.31103
2372.13428	0.32377
2370.20571	0.33777
2368.27715	0.35222
2366.34858	0.36625
2364.42002	0.37922
2362.49146	0.39009
2360.56289	0.39689
2358.63433	0.39726
2356.70576	0.39134
2354.77720	0.38095
2352.84863	0.36763
2350.92007	0.35428
2348.99150	0.34645
2347.06294	0.34741
2345.13437	0.35753
2343.20581	0.37145
2341.27725	0.37931
2339.34868	0.38018
2337.42012	0.37860
2335.49155	0.37734
2333.56299	0.37705
2331.63442	0.37731
2329.70586	0.37684
2327.77729	0.37518
2325.84873	0.37255
2323.92017	0.36931
2321.99160	0.36566
2320.06304	0.36150
2318.13447	0.35717
2316.20591	0.35359
2314.27734	0.35145
2312.34878	0.35073
2310.42021	0.35042
2308.49165	0.34922
2306.56309	0.34700
2304.63452	0.34490
2302.70596	0.34395
2300.77739	0.34389
2298.84883	0.34407
2296.92026	0.34442
2294.99170	0.34497
2293.06313	0.34552
2291.13457	0.34597
2289.20601	0.34635
2287.27744	0.34671
2285.34888	0.34728
2283.42031	0.34836
2281.49175	0.35009
2279.56318	0.35230
2277.63462	0.35463
2275.70605	0.35702
2273.77749	0.35942
2271.84893	0.36157
2269.92036	0.36350
2267.99180	0.36548
2266.06323	0.36756
2264.13467	0.36960
2262.20610	0.37157
2260.27754	0.37342
2258.34897	0.37514
2256.42041	0.37686
2254.49185	0.37871
2252.56328	0.38074
2250.63472	0.38282
2248.70615	0.38485
2246.77759	0.38686
2244.84902	0.38888
2242.92046	0.39100
2240.99189	0.39318
2239.06333	0.39525
2237.13477	0.39725
2235.20620	0.39937
2233.27764	0.40165
2231.34907	0.40390
2229.42051	0.40600
2227.49194	0.40812
2225.56338	0.41042
2223.63481	0.41275
2221.70625	0.41500
2219.77769	0.41713
2217.84912	0.41918
2215.92056	0.42130
2213.99199	0.42344
2212.06343	0.42552
2210.13486	0.42766
2208.20630	0.42997
2206.27773	0.43224
2204.34917	0.43427
2202.42061	0.43623
2200.49204	0.43827
2198.56348	0.44027
2196.63491	0.44217
2194.70635	0.44407
2192.77778	0.44606
2190.84922	0.44805
2188.92065	0.44992
2186.99209	0.45170
2185.06353	0.45345
2183.13496	0.45517
2181.20640	0.45691
2179.27783	0.45871
2177.34927	0.46043
2175.42070	0.46191
2173.49214	0.46323
2171.56357	0.46454
2169.63501	0.46596
2167.70645	0.46735
2165.77788	0.46860
2163.84932	0.46979
2161.92075	0.47099
2159.99219	0.47217
2158.06362	0.47321
2156.13506	0.47410
2154.20649	0.47487
2152.27793	0.47564
2150.34937	0.47642
2148.42080	0.47701
2146.49224	0.47745
2144.56367	0.47795
2142.63511	0.47847
2140.70654	0.47878
2138.77798	0.47894
2136.84941	0.47912
2134.92085	0.47935
2132.99229	0.47951
2131.06372	0.47949
2129.13516	0.47919
2127.20659	0.47881
2125.27803	0.47857
2123.34946	0.47831
2121.42090	0.47789
2119.49233	0.47731
2117.56377	0.47658
2115.63521	0.47582
2113.70664	0.47508
2111.77808	0.47426
2109.84951	0.47328
2107.92095	0.47223
2105.99238	0.47119
2104.06382	0.47016
2102.13525	0.46904
2100.20669	0.46769
2098.27812	0.46618
2096.34956	0.46465
2094.42100	0.46305
2092.49243	0.46146
2090.56387	0.45987
2088.63530	0.45808
2086.70674	0.45615
2084.77817	0.45409
2082.84961	0.45202
2080.92104	0.45003
2078.99248	0.44811
2077.06392	0.44615
2075.13535	0.44401
2073.20679	0.44168
2071.27822	0.43936
2069.34966	0.43722
2067.42109	0.43514
2065.49253	0.43285
2063.56396	0.43025
2061.63540	0.42770
2059.70684	0.42528
2057.77827	0.42274
2055.84971	0.42001
2053.92114	0.41725
2051.99258	0.41462
2050.06401	0.41211
2048.13545	0.40967
2046.20688	0.40718
2044.27832	0.40453
2042.34976	0.40178
2040.42119	0.39891
2038.49263	0.39595
2036.56406	0.39304
2034.63550	0.39021
2032.70693	0.38739
2030.77837	0.38465
2028.84980	0.38188
2026.92124	0.37902
2024.99268	0.37615
2023.06411	0.37338
2021.13555	0.37071
2019.20698	0.36814
2017.27842	0.36547
2015.34985	0.36245
2013.42129	0.35934
2011.49272	0.35650
2009.56416	0.35384
2007.63560	0.35105
2005.70703	0.34818
2003.77847	0.34547
2001.84990	0.34287
1999.92134	0.34024
1997.99277	0.33760
1996.06421	0.33498
1994.13564	0.33259
1992.20708	0.33027
1990.27852	0.32762
1988.34995	0.32484
1986.42139	0.32221
1984.49282	0.31969
1982.56426	0.31728
1980.63569	0.31487
1978.70713	0.31244
1976.77856	0.31005
1974.85000	0.30776
1972.92144	0.30553
1970.99287	0.30348
1969.06431	0.30171
1967.13574	0.29992
1965.20718	0.29767
1963.27861	0.29535
1961.35005	0.29327
1959.42148	0.29130
1957.49292	0.28949
1955.56436	0.28772
1953.63579	0.28587
1951.70723	0.28402
1949.77866	0.28224
1947.85010	0.28058
1945.92153	0.27922
1943.99297	0.27811
1942.06440	0.27673
1940.13584	0.27482
1938.20728	0.27294
1936.27871	0.27144
1934.35015	0.27012
1932.42158	0.26880
1930.49302	0.26747
1928.56445	0.26629
1926.63589	0.26531
1924.70732	0.26462
1922.77876	0.26397
1920.85020	0.26296
1918.92163	0.26193
1916.99307	0.26098
1915.06450	0.25973
1913.13594	0.25858
1911.20737	0.25797
1909.27881	0.25754
1907.35024	0.25678
1905.42168	0.25582
1903.49312	0.25502
1901.56455	0.25432
1899.63599	0.25369
1897.70742	0.25326
1895.77886	0.25302
1893.85029	0.25270
1891.92173	0.25231
1889.99316	0.25223
1888.06460	0.25200
1886.13604	0.25146
1884.20747	0.25104
1882.27891	0.25069
1880.35034	0.25039
1878.42178	0.25026
1876.49321	0.25024
1874.56465	0.25023
1872.63608	0.25041
1870.70752	0.25114
1868.77896	0.25243
1866.85039	0.25284
1864.92183	0.25203
1862.99326	0.25136
1861.06470	0.25128
1859.13613	0.25159
1857.20757	0.25194
1855.27900	0.25237
1853.35044	0.25283
1851.42187	0.25338
1849.49331	0.25413
1847.56475	0.25518
1845.63618	0.25656
1843.70762	0.25785
1841.77905	0.25810
1839.85049	0.25794
1837.92192	0.25847
1835.99336	0.25929
1834.06479	0.26017
1832.13623	0.26152
1830.20767	0.26364
1828.27910	0.26534
1826.35054	0.26614
1824.42197	0.26711
1822.49341	0.26788
1820.56484	0.26866
1818.63628	0.26993
1816.70771	0.27159
1814.77915	0.27328
1812.85059	0.27520
1810.92202	0.27748
1808.99346	0.27957
1807.06489	0.28125
1805.13633	0.28301
1803.20776	0.28545
1801.27920	0.28843
1799.35063	0.29130
1797.42207	0.29358
1795.49351	0.29606
1793.56494	0.29941
1791.63638	0.30335
1789.70781	0.30613
1787.77925	0.30792
1785.85068	0.31074
1783.92212	0.31453
1781.99355	0.31871
1780.06499	0.32303
1778.13643	0.32716
1776.20786	0.33116
1774.27930	0.33604
1772.35073	0.34271
1770.42217	0.34889
1768.49360	0.35315
1766.56504	0.35733
1764.63647	0.36212
1762.70791	0.36789
1760.77935	0.37517
1758.85078	0.38163
1756.92222	0.38797
1754.99365	0.39478
1753.06509	0.40105
1751.13652	0.40916
1749.20796	0.41968
1747.27939	0.42947
1745.35083	0.43754
1743.42227	0.44632
1741.49370	0.45658
1739.56514	0.46939
1737.63657	0.48255
1735.70801	0.49432
1733.77944	0.51222
1731.85088	0.53292
1729.92231	0.54835
1727.99375	0.56380
1726.06519	0.58048
1724.13662	0.59909
1722.20806	0.61940
1720.27949	0.63821
1718.35093	0.66081
1716.42236	0.69481
1714.49380	0.72583
1712.56523	0.74953
1710.63667	0.77262
1708.70811	0.79825
1706.77954	0.82832
1704.85098	0.86487
1702.92241	0.89710
1700.99385	0.92854
1699.06528	0.97675
1697.13672	1.02184
1695.20815	1.06728
1693.27959	1.11024
1691.35103	1.14493
1689.42246	1.18644
1687.49390	1.23104
1685.56533	1.27416
1683.63677	1.34210
1681.70820	1.41243
1679.77964	1.45565
1677.85107	1.49697
1675.92251	1.54525
1673.99395	1.60623
1672.06538	1.66042
1670.13682	1.71381
1668.20825	1.78433
1666.27969	1.84061
1664.35112	1.88947
1662.42256	1.95387
1660.49399	2.02772
1658.56543	2.08363
1656.63687	2.12840
1654.70830	2.17047
1652.77974	2.23604
1650.85117	2.29352
1648.92261	2.31137
1646.99404	2.33805
1645.06548	2.36435
1643.13691	2.37848
1641.20835	2.38441
1639.27979	2.39159
1637.35122	2.39693
1635.42266	2.39491
1633.49409	2.38301
1631.56553	2.36507
1629.63696	2.34554
1627.70840	2.31489
1625.77983	2.27925
1623.85127	2.23335
1621.92271	2.17758
1619.99414	2.13059
1618.06558	2.08635
1616.13701	2.01952
1614.20845	1.94915
1612.27988	1.89645
1610.35132	1.84267
1608.42275	1.78514
1606.49419	1.72911
1604.56562	1.67797
1602.63706	1.62787
1600.70850	1.57808
1598.77993	1.53260
1596.85137	1.49075
1594.92280	1.45064
1592.99424	1.41215
1591.06567	1.37702
1589.13711	1.34425
1587.20854	1.31410
1585.27998	1.28661
1583.35142	1.26119
1581.42285	1.23859
1579.49429	1.22046
1577.56572	1.20529
1575.63716	1.18606
1573.70859	1.16841
1571.78003	1.15774
1569.85146	1.14791
1567.92290	1.13695
1565.99434	1.12922
1564.06577	1.12493
1562.13721	1.12307
1560.20864	1.12459
1558.28008	1.13092
1556.35151	1.13478
1554.42295	1.13582
1552.49438	1.13779
1550.56582	1.13912
1548.63726	1.13778
1546.70869	1.13340
1544.78013	1.12636
1542.85156	1.11631
1540.92300	1.09919
1538.99443	1.06728
1537.06587	1.04246
1535.13730	1.02633
1533.20874	1.00549
1531.28018	0.98312
1529.35161	0.96731
1527.42305	0.95300
1525.49448	0.93818
1523.56592	0.92580
1521.63735	0.91409
1519.70879	0.90099
1517.78022	0.88953
1515.85166	0.87657
1513.92310	0.86303
1511.99453	0.85162
1510.06597	0.84208
1508.13740	0.83345
1506.20884	0.81687
1504.28027	0.80066
1502.35171	0.79216
1500.42314	0.78544
1498.49458	0.77852
1496.56602	0.77019
1494.63745	0.76149
1492.70889	0.75498
1490.78032	0.74994
1488.85176	0.74398
1486.92319	0.73726
1484.99463	0.73151
1483.06606	0.72719
1481.13750	0.72388
1479.20894	0.72151
1477.28037	0.72052
1475.35181	0.72075
1473.42324	0.72110
1471.49468	0.71895
1469.56611	0.71510
1467.63755	0.71222
1465.70898	0.71071
1463.78042	0.71003
1461.85186	0.70994
1459.92329	0.71110
1457.99473	0.71364
1456.06616	0.71422
1454.13760	0.71102
1452.20903	0.70790
1450.28047	0.70529
1448.35190	0.70290
1446.42334	0.70037
1444.49478	0.69768
1442.56621	0.69498
1440.63765	0.69239
1438.70908	0.69016
1436.78052	0.68743
1434.85195	0.68349
1432.92339	0.68013
1430.99482	0.67810
1429.06626	0.67708
1427.13770	0.67690
1425.20913	0.67768
1423.28057	0.67910
1421.35200	0.68022
1419.42344	0.68094
1417.49487	0.68057
1415.56631	0.67886
1413.63774	0.67763
1411.70918	0.67761
1409.78062	0.67849
1407.85205	0.68003
1405.92349	0.68232
1403.99492	0.68436
1402.06636	0.68487
1400.13779	0.68435
1398.20923	0.68308
1396.28066	0.68076
1394.35210	0.67684
1392.42354	0.67181
1390.49497	0.66738
1388.56641	0.66344
1386.63784	0.65841
1384.70928	0.65237
1382.78071	0.64672
1380.85215	0.64167
1378.92358	0.63740
1376.99502	0.63452
1375.06646	0.63312
1373.13789	0.63208
1371.20933	0.63083
1369.28076	0.62982
1367.35220	0.62871
1365.42363	0.62731
1363.49507	0.62609
1361.56650	0.62462
1359.63794	0.62256
1357.70937	0.62078
1355.78081	0.61947
1353.85225	0.61825
1351.92368	0.61714
1349.99512	0.61632
1348.06655	0.61554
1346.13799	0.61462
1344.20942	0.61378
1342.28086	0.61333
1340.35229	0.61328
1338.42373	0.61296
1336.49517	0.61198
1334.56660	0.61096
1332.63804	0.61038
1330.70947	0.61039
1328.78091	0.61088
1326.85234	0.61163
1324.92378	0.61253
1322.99521	0.61351
1321.06665	0.61445
1319.13809	0.61524
1317.20952	0.61565
1315.28096	0.61562
1313.35239	0.61530
1311.42383	0.61465
1309.49526	0.61376
1307.56670	0.61296
1305.63813	0.61235
1303.70957	0.61177
1301.78101	0.61109
1299.85244	0.61016
1297.92388	0.60896
1295.99531	0.60770
1294.06675	0.60640
1292.13818	0.60498
1290.20962	0.60357
1288.28105	0.60217
1286.35249	0.60072
1284.42393	0.59934
1282.49536	0.59800
1280.56680	0.59660
1278.63823	0.59502
1276.70967	0.59340
1274.78110	0.59207
1272.85254	0.59103
1270.92397	0.59008
1268.99541	0.58924
1267.06685	0.58842
1265.13828	0.58733
1263.20972	0.58607
1261.28115	0.58512
1259.35259	0.58453
1257.42402	0.58404
1255.49546	0.58373
1253.56689	0.58369
1251.63833	0.58383
1249.70977	0.58405
1247.78120	0.58420
1245.85264	0.58402
1243.92407	0.58335
1241.99551	0.58230
1240.06694	0.58102
1238.13838	0.57933
1236.20981	0.57708
1234.28125	0.57447
1232.35269	0.57195
1230.42412	0.56971
1228.49556	0.56755
1226.56699	0.56535
1224.63843	0.56321
1222.70986	0.56127
1220.78130	0.55945
1218.85273	0.55770
1216.92417	0.55613
1214.99561	0.55483
1213.06704	0.55375
1211.13848	0.55287
1209.20991	0.55219
1207.28135	0.55164
1205.35278	0.55094
1203.42422	0.55002
1201.49565	0.54902
1199.56709	0.54786
1197.63853	0.54662
1195.70996	0.54563
1193.78140	0.54489
1191.85283	0.54417
1189.92427	0.54351
1187.99570	0.54301
1186.06714	0.54269
1184.13857	0.54264
1182.21001	0.54294
1180.28145	0.54364
1178.35288	0.54474
1176.42432	0.54612
1174.49575	0.54750
1172.56719	0.54852
1170.63862	0.54905
1168.71006	0.54930
1166.78149	0.54955
1164.85293	0.54977
1162.92437	0.54994
1160.99580	0.55005
1159.06724	0.54983
1157.13867	0.54923
1155.21011	0.54843
1153.28154	0.54734
1151.35298	0.54570
1149.42441	0.54332
1147.49585	0.54047
1145.56729	0.53753
1143.63872	0.53470
1141.71016	0.53232
1139.78159	0.53060
1137.85303	0.52955
1135.92446	0.52898
1133.99590	0.52856
1132.06733	0.52820
1130.13877	0.52793
1128.21021	0.52763
1126.28164	0.52716
1124.35308	0.52665
1122.42451	0.52645
1120.49595	0.52661
1118.56738	0.52684
1116.63882	0.52715
1114.71025	0.52767
1112.78169	0.52832
1110.85312	0.52899
1108.92456	0.52984
1106.99600	0.53082
1105.06743	0.53183
1103.13887	0.53293
1101.21030	0.53415
1099.28174	0.53550
1097.35317	0.53726
1095.42461	0.54000
1093.49604	0.54382
1091.56748	0.54851
1089.63892	0.55419
1087.71035	0.56115
1085.78179	0.56920
1083.85322	0.57729
1081.92466	0.58438
1079.99609	0.58987
1078.06753	0.59289
1076.13896	0.59278
1074.21040	0.58978
1072.28184	0.58475
1070.35327	0.57851
1068.42471	0.57168
1066.49614	0.56472
1064.56758	0.55823
1062.63901	0.55252
1060.71045	0.54753
1058.78188	0.54330
1056.85332	0.53950
1054.92476	0.53584
1052.99619	0.53273
1051.06763	0.53024
1049.13906	0.52807
1047.21050	0.52644
1045.28193	0.52559
1043.35337	0.52506
1041.42480	0.52445
1039.49624	0.52397
1037.56768	0.52379
1035.63911	0.52346
1033.71055	0.52273
1031.78198	0.52190
1029.85342	0.52081
1027.92485	0.51929
1025.99629	0.51776
1024.06772	0.51656
1022.13916	0.51574
1020.21060	0.51543
1018.28203	0.51529
1016.35347	0.51494
1014.42490	0.51463
1012.49634	0.51457
1010.56777	0.51463
1008.63921	0.51494
1006.71064	0.51567
1004.78208	0.51685
1002.85352	0.51854
1000.92495	0.52090
998.99639	0.52407
997.06782	0.52797
995.13926	0.53234
993.21069	0.53664
991.28213	0.54015
989.35356	0.54238
987.42500	0.54321
985.49644	0.54298
983.56787	0.54237
981.63931	0.54215
979.71074	0.54278
977.78218	0.54426
975.85361	0.54630
973.92505	0.54873
971.99648	0.55151
970.06792	0.55465
968.13936	0.55819
966.21079	0.56209
964.28223	0.56634
962.35366	0.57100
960.42510	0.57594
958.49653	0.58100
956.56797	0.58649
954.63940	0.59243
952.71084	0.59844
950.78228	0.60463
948.85371	0.61110
946.92515	0.61740
944.99658	0.62351
943.06802	0.62972
941.13945	0.63592
939.21089	0.64218
937.28232	0.64850
935.35376	0.65434
933.42520	0.65974
931.49663	0.66520
929.56807	0.67070
927.63950	0.67633
925.71094	0.68225
923.78237	0.68853
921.85381	0.69527
919.92524	0.70215
917.99668	0.70890
916.06812	0.71576
914.13955	0.72282
912.21099	0.73015
910.28242	0.73772
908.35386	0.74579
906.42529	0.75478
904.49673	0.76374
902.56816	0.77195
900.63960	0.78071
898.71104	0.79099
896.78247	0.80176
894.85391	0.81225
892.92534	0.82279
890.99678	0.83326
889.06821	0.84390
887.13965	0.85490
885.21108	0.86550
883.28252	0.87574
881.35396	0.88650
879.42539	0.89821
877.49683	0.91053
875.56826	0.92231
873.63970	0.93324
871.71113	0.94440
869.78257	0.95589
867.85400	0.96739
865.92544	0.97895
863.99687	0.98995
862.06831	1.00074
860.13975	1.01208
858.21118	1.02295
856.28262	1.03355
854.35405	1.04666
852.42549	1.06086
850.49692	1.07254
848.56836	1.08295
846.63979	1.09432
844.71123	1.10711
842.78267	1.12046
840.85410	1.13277
838.92554	1.14443
836.99697	1.15643
835.06841	1.16689
833.13984	1.17651
831.21128	1.18838
829.28271	1.19987
827.35415	1.20982
825.42559	1.22210
823.49702	1.23762
821.56846	1.25084
819.63989	1.25966
817.71133	1.26703
815.78276	1.26919
813.85420	1.27069
811.92563	1.28746
809.99707	1.31517
808.06851	1.32764
806.13994	1.32356
804.21138	1.32475
802.28281	1.33335
800.35425	1.34054
798.42568	1.34773
796.49712	1.36056
794.56855	1.39108
792.63999	1.44122
790.71143	1.49055
788.78286	1.54509
786.85430	1.60176
784.92573	1.60766
782.99717	1.59091
781.06860	1.59539
779.14004	1.61177
777.21147	1.66647
775.28291	1.80273
773.35435	1.98134
771.42578	1.99481
769.49722	1.74478
767.56865	1.59804
765.64009	1.55441
763.71152	1.51434
761.78296	1.51365
759.85439	1.69917
757.92583	1.98083
755.99727	1.81039
754.06870	1.96144
752.14014	2.33939
750.21157	1.60736
748.28301	1.29958
746.35444	1.21144
744.42588	1.22077
742.49731	1.21847
740.56875	1.10217
738.64019	0.94115
736.71162	0.83233
734.78306	0.78331
732.85449	0.77723
730.92593	0.71305
728.99736	0.57069
727.06880	0.44604
725.14023	0.39111
723.21167	0.58254
721.28311	0.69156
719.35454	0.20234
717.42598	-0.19798
715.49741	-0.12702
713.56885	-0.03631
711.64028	-0.21964
709.71172	-0.53913
707.78315	-0.46264
705.85459	-0.21688
703.92603	-0.00943
701.99746	0.15928
700.06890	0.22002
698.14033	0.27551
696.21177	0.54104
694.28320	1.35468
692.35464	0.76187
690.42607	0.41339
688.49751	0.34968
686.56895	0.47721
684.64038	0.64279
682.71182	0.70604
680.78325	0.76340
678.85469	0.68894
676.92612	0.57201
674.99756	0.54312
673.06899	0.58927
671.14043	0.55723
669.21187	0.42506
667.28330	0.30428
665.35474	0.24499
663.42617	0.28922
661.49761	0.37921
659.56904	0.39711
657.64048	0.34300
655.71191	0.27325
653.78335	0.25012
651.85479	0.30036
649.92622	0.41632
647.99766	0.48846
646.06909	0.36869
644.14053	0.29249
642.21196	0.34354
640.28340	0.42452
638.35483	0.38785
636.42627	0.34035
634.49771	0.36475
632.56914	0.42030
630.64058	0.48289
628.71201	0.45188
626.78345	0.38847
624.85488	0.38373
622.92632	0.42479
620.99775	0.53456
619.06919	0.59205
617.14062	0.44714
615.21206	0.31602
613.28350	0.27907
611.35493	0.28794
609.42637	0.32314
607.49780	0.36517
605.56924	0.34398
603.64067	0.28837
601.71211	0.26199
599.78354	0.26947
597.85498	0.29237
595.92642	0.31858
593.99785	0.29588
592.06929	0.26745
590.14072	0.30343
588.21216	0.37125
586.28359	0.36023
584.35503	0.31991
582.42646	0.34008
580.49790	0.41159
578.56934	0.44191
576.64077	0.37981
574.71221	0.30230
572.78364	0.27120
570.85508	0.31135
568.92651	0.37975
566.99795	0.40133
565.06938	0.36002
563.14082	0.31040
561.21226	0.26861
559.28369	0.22661
557.35513	0.18433
555.42656	0.14648
553.49800	0.12555
551.56943	0.12531
549.64087	0.13728
547.71230	0.17154
545.78374	0.21699
543.85518	0.24650
541.92661	0.26413
539.99805	0.29596
538.06948	0.33993
536.14092	0.34065
534.21235	0.29168
532.28379	0.24793
530.35522	0.20684
528.42666	0.19375
526.49810	0.24838
524.56953	0.32809
522.64097	0.32826
520.71240	0.29839
518.78384	0.31725
516.85527	0.29777
514.92671	0.20336
512.99814	0.14087
511.06958	0.17197
509.14102	0.24438
507.21245	0.27022
505.28389	0.23003
503.35532	0.20203
501.42676	0.21813
499.49819	0.20993
