3997.91411	0.10369
3995.98555	0.10380
3994.05698	0.10397
3992.12842	0.10423
3990.19985	0.10459
3988.27129	0.10507
3986.34272	0.10554
3984.41416	0.10615
3982.48560	0.10684
3980.55703	0.10737
3978.62847	0.10763
3976.69990	0.10772
3974.77134	0.10782
3972.84277	0.10794
3970.91421	0.10785
3968.98564	0.10751
3967.05708	0.10738
3965.12852	0.10773
3963.19995	0.10822
3961.27139	0.10857
3959.34282	0.10868
3957.41426	0.10862
3955.48569	0.10863
3953.55713	0.10897
3951.62856	0.10972
3949.70000	0.11063
3947.77144	0.11105
3945.84287	0.11055
3943.91431	0.10995
3941.98574	0.10975
3940.05718	0.10939
3938.12861	0.10900
3936.20005	0.10900
3934.27148	0.10937
3932.34292	0.11019
3930.41436	0.11065
3928.48579	0.11000
3926.55723	0.10964
3924.62866	0.11043
3922.70010	0.11099
3920.77153	0.11062
3918.84297	0.11049
3916.91440	0.11060
3914.98584	0.10975
3913.05728	0.10836
3911.12871	0.10766
3909.20015	0.10778
3907.27158	0.10894
3905.34302	0.11146
3903.41445	0.11407
3901.48589	0.11463
3899.55732	0.11344
3897.62876	0.11150
3895.70020	0.10992
3893.77163	0.11002
3891.84307	0.11156
3889.91450	0.11221
3887.98594	0.11156
3886.05737	0.11193
3884.12881	0.11306
3882.20024	0.11352
3880.27168	0.11335
3878.34312	0.11185
3876.41455	0.11049
3874.48599	0.11153
3872.55742	0.11410
3870.62886	0.11604
3868.70029	0.11594
3866.77173	0.11471
3864.84316	0.11534
3862.91460	0.11683
3860.98604	0.11578
3859.05747	0.11384
3857.12891	0.11412
3855.20034	0.11705
3853.27178	0.12170
3851.34321	0.12333
3849.41465	0.11993
3847.48608	0.11681
3845.55752	0.11587
3843.62896	0.11719
3841.70039	0.12019
3839.77183	0.12369
3837.84326	0.12589
3835.91470	0.12532
3833.98613	0.12374
3832.05757	0.12275
3830.12900	0.12237
3828.20044	0.12275
3826.27187	0.12378
3824.34331	0.12500
3822.41475	0.12710
3820.48618	0.13044
3818.55762	0.13206
3816.62905	0.13175
3814.70049	0.13059
3812.77192	0.12877
3810.84336	0.12826
3808.91479	0.12994
3806.98623	0.13329
3805.05767	0.13600
3803.12910	0.13739
3801.20054	0.13922
3799.27197	0.14060
3797.34341	0.14087
3795.41484	0.14048
3793.48628	0.13928
3791.55771	0.13886
3789.62915	0.13982
3787.70059	0.14154
3785.77202	0.14393
3783.84346	0.14611
3781.91489	0.14760
3779.98633	0.14960
3778.05776	0.15151
3776.12920	0.15197
3774.20063	0.15247
3772.27207	0.15457
3770.34351	0.15831
3768.41494	0.16174
3766.48638	0.16321
3764.55781	0.16402
3762.62925	0.16514
3760.70068	0.16761
3758.77212	0.17171
3756.84355	0.17535
3754.91499	0.17807
3752.98643	0.18202
3751.05786	0.18829
3749.12930	0.19374
3747.20073	0.19558
3745.27217	0.19757
3743.34360	0.20069
3741.41504	0.20326
3739.48647	0.20643
3737.55791	0.21187
3735.62935	0.21979
3733.70078	0.22724
3731.77222	0.23046
3729.84365	0.23199
3727.91509	0.23516
3725.98652	0.24109
3724.05796	0.24845
3722.12939	0.25493
3720.20083	0.26022
3718.27227	0.26503
3716.34370	0.27042
3714.41514	0.27763
3712.48657	0.28897
3710.55801	0.30539
3708.62944	0.31989
3706.70088	0.32953
3704.77231	0.33960
3702.84375	0.35316
3700.91519	0.37071
3698.98662	0.38867
3697.05806	0.40571
3695.12949	0.42450
3693.20093	0.44498
3691.27236	0.46815
3689.34380	0.49793
3687.41523	0.53131
3685.48667	0.55866
3683.55811	0.58331
3681.62954	0.61123
3679.70098	0.64377
3677.77241	0.67889
3675.84385	0.72042
3673.91528	0.77465
3671.98672	0.81760
3670.05815	0.85622
3668.12959	0.90923
3666.20103	0.95598
3664.27246	0.99483
3662.34390	1.03777
3660.41533	1.08543
3658.48677	1.13290
3656.55820	1.18322
3654.62964	1.23926
3652.70107	1.28647
3650.77251	1.32875
3648.84395	1.38883
3646.91538	1.45988
3644.98682	1.50789
3643.05825	1.54474
3641.12969	1.58370
3639.20112	1.62761
3637.27256	1.67319
3635.34399	1.71846
3633.41543	1.76306
3631.48687	1.80458
3629.55830	1.84779
3627.62974	1.90407
3625.70117	1.95442
3623.77261	1.98825
3621.84404	2.02187
3619.91548	2.06048
3617.98691	2.10573
3616.05835	2.14895
3614.12979	2.18683
3612.20122	2.22699
3610.27266	2.26613
3608.34409	2.30602
3606.41553	2.34937
3604.48696	2.38896
3602.55840	2.42453
3600.62983	2.46430
3598.70127	2.50710
3596.77271	2.54635
3594.84414	2.58499
3592.91558	2.62585
3590.98701	2.66522
3589.05845	2.70344
3587.12988	2.75075
3585.20132	2.80163
3583.27275	2.84160
3581.34419	2.87746
3579.41562	2.91690
3577.48706	2.95870
3575.55850	3.00016
3573.62993	3.04345
3571.70137	3.08618
3569.77280	3.12590
3567.84424	3.16786
3565.91567	3.22174
3563.98711	3.27626
3562.05854	3.31950
3560.12998	3.35998
3558.20142	3.40374
3556.27285	3.44999
3554.34429	3.49439
3552.41572	3.54001
3550.48716	3.58787
3548.55859	3.63218
3546.63003	3.67522
3544.70146	3.72451
3542.77290	3.77636
3540.84434	3.82342
3538.91577	3.86686
3536.98721	3.91055
3535.05864	3.95855
3533.13008	4.00862
3531.20151	4.05881
3529.27295	4.10936
3527.34438	4.15963
3525.41582	4.20778
3523.48726	4.25477
3521.55869	4.30533
3519.63013	4.35807
3517.70156	4.40878
3515.77300	4.45619
3513.84443	4.50409
3511.91587	4.55321
3509.98730	4.60071
3508.05874	4.64865
3506.13018	4.69652
3504.20161	4.73972
3502.27305	4.78173
3500.34448	4.82780
3498.41592	4.87698
3496.48735	4.93062
3494.55879	4.98678
3492.63022	5.03826
3490.70166	5.08495
3488.77310	5.13394
3486.84453	5.18493
3484.91597	5.23209
3482.98740	5.28040
3481.05884	5.33601
3479.13027	5.38752
3477.20171	5.42631
3475.27314	5.46323
3473.34458	5.50733
3471.41602	5.55704
3469.48745	5.60969
3467.55889	5.66457
3465.63032	5.72054
3463.70176	5.77206
3461.77319	5.81319
3459.84463	5.86135
3457.91606	5.92688
3455.98750	5.98838
3454.05894	6.03758
3452.13037	6.08447
3450.20181	6.12548
3448.27324	6.15557
3446.34468	6.18937
3444.41611	6.24296
3442.48755	6.31370
3440.55898	6.37979
3438.63042	6.43771
3436.70186	6.48989
3434.77329	6.52592
3432.84473	6.56014
3430.91616	6.60917
3428.98760	6.66757
3427.05903	6.72489
3425.13047	6.78959
3423.20190	6.85829
3421.27334	6.91573
3419.34478	6.97153
3417.41621	7.03751
3415.48765	7.09124
3413.55908	7.11614
3411.63052	7.13863
3409.70195	7.18604
3407.77339	7.24116
3405.84482	7.25267
3403.91626	7.25805
3401.98770	7.30305
3400.05913	7.36235
3398.13057	7.41854
3396.20200	7.46764
3394.27344	7.50456
3392.34487	7.51482
3390.41631	7.50898
3388.48774	7.51461
3386.55918	7.56546
3384.63062	7.63307
3382.70205	7.68973
3380.77349	7.76205
3378.84492	7.82420
3376.91636	7.85344
3374.98779	7.86096
3373.05923	7.87848
3371.13066	7.90071
3369.20210	7.90615
3367.27354	7.89735
3365.34497	7.91467
3363.41641	7.99351
3361.48784	8.09759
3359.55928	8.17703
3357.63071	8.19722
3355.70215	8.14106
3353.77358	8.06096
3351.84502	8.05994
3349.91646	8.10240
3347.98789	8.12197
3346.05933	8.11160
3344.13076	8.06924
3342.20220	8.06539
3340.27363	8.10939
3338.34507	8.11934
3336.41650	8.09071
3334.48794	8.13386
3332.55937	8.24581
3330.63081	8.33417
3328.70225	8.36755
3326.77368	8.35072
3324.84512	8.29604
3322.91655	8.20179
3320.98799	8.13196
3319.05942	8.17124
3317.13086	8.31700
3315.20229	8.43077
3313.27373	8.40981
3311.34517	8.29966
3309.41660	8.25692
3307.48804	8.37300
3305.55947	8.50655
3303.63091	8.51250
3301.70234	8.43148
3299.77378	8.41221
3297.84521	8.49674
3295.91665	8.58208
3293.98809	8.61727
3292.05952	8.66062
3290.13096	8.71767
3288.20239	8.72947
3286.27383	8.72450
3284.34526	8.68897
3282.41670	8.58285
3280.48813	8.42990
3278.55957	8.32225
3276.63101	8.33163
3274.70244	8.42412
3272.77388	8.52172
3270.84531	8.52134
3268.91675	8.40323
3266.98818	8.30770
3265.05962	8.32957
3263.13105	8.39944
3261.20249	8.42953
3259.27393	8.45357
3257.34536	8.52370
3255.41680	8.56609
3253.48823	8.45539
3251.55967	8.31212
3249.63110	8.35858
3247.70254	8.52360
3245.77397	8.55046
3243.84541	8.47042
3241.91685	8.38648
3239.98828	8.32193
3238.05972	8.28670
3236.13115	8.21432
3234.20259	8.13709
3232.27402	8.15629
3230.34546	8.24290
3228.41689	8.26631
3226.48833	8.21845
3224.55977	8.20926
3222.63120	8.23217
3220.70264	8.19092
3218.77407	8.11941
3216.84551	8.07688
3214.91694	8.02424
3212.98838	8.00952
3211.05981	8.07561
3209.13125	8.11637
3207.20269	8.06820
3205.27412	7.96255
3203.34556	7.88331
3201.41699	7.90606
3199.48843	7.95540
3197.55986	7.91492
3195.63130	7.81608
3193.70273	7.75682
3191.77417	7.72962
3189.84561	7.65585
3187.91704	7.60804
3185.98848	7.67337
3184.05991	7.71740
3182.13135	7.63746
3180.20278	7.51001
3178.27422	7.37308
3176.34565	7.27494
3174.41709	7.24229
3172.48853	7.21380
3170.55996	7.14537
3168.63140	7.08153
3166.70283	7.04415
3164.77427	6.98767
3162.84570	6.90232
3160.91714	6.81395
3158.98857	6.74270
3157.06001	6.69292
3155.13145	6.63586
3153.20288	6.55104
3151.27432	6.46656
3149.34575	6.40098
3147.41719	6.34455
3145.48862	6.28719
3143.56006	6.21386
3141.63149	6.13239
3139.70293	6.05674
3137.77437	5.98235
3135.84580	5.91073
3133.91724	5.84450
3131.98867	5.78345
3130.06011	5.72396
3128.13154	5.65458
3126.20298	5.58095
3124.27441	5.51358
3122.34585	5.44295
3120.41729	5.36608
3118.48872	5.28782
3116.56016	5.21073
3114.63159	5.13698
3112.70303	5.06482
3110.77446	4.99530
3108.84590	4.92887
3106.91733	4.86042
3104.98877	4.79152
3103.06021	4.72756
3101.13164	4.66295
3099.20308	4.59330
3097.27451	4.52328
3095.34595	4.45711
3093.41738	4.39522
3091.48882	4.33455
3089.56025	4.27250
3087.63169	4.21040
3085.70312	4.15057
3083.77456	4.09213
3081.84600	4.03326
3079.91743	3.97087
3077.98887	3.90588
3076.06030	3.84423
3074.13174	3.78723
3072.20317	3.73223
3070.27461	3.67590
3068.34604	3.61849
3066.41748	3.56270
3064.48892	3.50848
3062.56035	3.45473
3060.63179	3.40127
3058.70322	3.34721
3056.77466	3.29219
3054.84609	3.23873
3052.91753	3.18770
3050.98896	3.13644
3049.06040	3.08415
3047.13184	3.03276
3045.20327	2.98315
3043.27471	2.93494
3041.34614	2.88747
3039.41758	2.83992
3037.48901	2.79313
3035.56045	2.74773
3033.63188	2.70266
3031.70332	2.65770
3029.77476	2.61340
3027.84619	2.56951
3025.91763	2.52544
3023.98906	2.48156
3022.06050	2.43883
3020.13193	2.39723
3018.20337	2.35635
3016.27480	2.31650
3014.34624	2.27755
3012.41768	2.23882
3010.48911	2.20001
3008.56055	2.16202
3006.63198	2.12574
3004.70342	2.09037
3002.77485	2.05504
3000.84629	2.01973
2998.91772	1.98508
2996.98916	1.95242
2995.06060	1.92160
2993.13203	1.89086
2991.20347	1.85976
2989.27490	1.82939
2987.34634	1.80004
2985.41777	1.77119
2983.48921	1.74259
2981.56064	1.71452
2979.63208	1.68724
2977.70352	1.66070
2975.77495	1.63471
2973.84639	1.60868
2971.91782	1.58252
2969.98926	1.55686
2968.06069	1.53203
2966.13213	1.50758
2964.20356	1.48283
2962.27500	1.45787
2960.34644	1.43308
2958.41787	1.40829
2956.48931	1.38360
2954.56074	1.35965
2952.63218	1.33658
2950.70361	1.31403
2948.77505	1.29161
2946.84648	1.26921
2944.91792	1.24726
2942.98936	1.22571
2941.06079	1.20414
2939.13223	1.18229
2937.20366	1.15975
2935.27510	1.13661
2933.34653	1.11347
2931.41797	1.09046
2929.48940	1.06805
2927.56084	1.04660
2925.63228	1.02497
2923.70371	1.00245
2921.77515	0.97968
2919.84658	0.95773
2917.91802	0.93775
2915.98945	0.92143
2914.06089	0.91020
2912.13232	0.90225
2910.20376	0.89385
2908.27520	0.88342
2906.34663	0.87170
2904.41807	0.85938
2902.48950	0.84679
2900.56094	0.83404
2898.63237	0.82098
2896.70381	0.80810
2894.77524	0.79575
2892.84668	0.78376
2890.91812	0.77216
2888.98955	0.76105
2887.06099	0.75041
2885.13242	0.74041
2883.20386	0.73083
2881.27529	0.72116
2879.34673	0.71121
2877.41816	0.70093
2875.48960	0.69071
2873.56104	0.68083
2871.63247	0.67056
2869.70391	0.65926
2867.77534	0.64709
2865.84678	0.63443
2863.91821	0.62176
2861.98965	0.60909
2860.06108	0.59596
2858.13252	0.58254
2856.20396	0.56913
2854.27539	0.55558
2852.34683	0.54190
2850.41826	0.52935
2848.48970	0.52067
2846.56113	0.51719
2844.63257	0.51631
2842.70400	0.51483
2840.77544	0.51191
2838.84687	0.50787
2836.91831	0.50287
2834.98975	0.49723
2833.06118	0.49147
2831.13262	0.48572
2829.20405	0.47992
2827.27549	0.47393
2825.34692	0.46773
2823.41836	0.46169
2821.48979	0.45574
2819.56123	0.44958
2817.63267	0.44346
2815.70410	0.43767
2813.77554	0.43202
2811.84697	0.42637
2809.91841	0.42081
2807.98984	0.41544
2806.06128	0.41009
2804.13271	0.40467
2802.20415	0.39932
2800.27559	0.39416
2798.34702	0.38921
2796.41846	0.38423
2794.48989	0.37915
2792.56133	0.37430
2790.63276	0.36966
2788.70420	0.36499
2786.77563	0.36045
2784.84707	0.35606
2782.91851	0.35168
2780.98994	0.34744
2779.06138	0.34337
2777.13281	0.33924
2775.20425	0.33501
2773.27568	0.33081
2771.34712	0.32687
2769.41855	0.32318
2767.48999	0.31958
2765.56143	0.31607
2763.63286	0.31263
2761.70430	0.30912
2759.77573	0.30547
2757.84717	0.30187
2755.91860	0.29851
2753.99004	0.29533
2752.06147	0.29225
2750.13291	0.28923
2748.20435	0.28618
2746.27578	0.28316
2744.34722	0.28023
2742.41865	0.27732
2740.49009	0.27457
2738.56152	0.27212
2736.63296	0.26970
2734.70439	0.26710
2732.77583	0.26434
2730.84727	0.26151
2728.91870	0.25892
2726.99014	0.25676
2725.06157	0.25471
2723.13301	0.25253
2721.20444	0.25033
2719.27588	0.24806
2717.34731	0.24571
2715.41875	0.24353
2713.49019	0.24155
2711.56162	0.23967
2709.63306	0.23785
2707.70449	0.23610
2705.77593	0.23446
2703.84736	0.23287
2701.91880	0.23124
2699.99023	0.22946
2698.06167	0.22774
2696.13311	0.22634
2694.20454	0.22507
2692.27598	0.22356
2690.34741	0.22189
2688.41885	0.22035
2686.49028	0.21888
2684.56172	0.21742
2682.63315	0.21620
2680.70459	0.21521
2678.77603	0.21407
2676.84746	0.21267
2674.91890	0.21136
2672.99033	0.21023
2671.06177	0.20906
2669.13320	0.20784
2667.20464	0.20677
2665.27607	0.20582
2663.34751	0.20480
2661.41895	0.20372
2659.49038	0.20271
2657.56182	0.20182
2655.63325	0.20102
2653.70469	0.20020
2651.77612	0.19946
2649.84756	0.19888
2647.91899	0.19826
2645.99043	0.19738
2644.06187	0.19643
2642.13330	0.19566
2640.20474	0.19504
2638.27617	0.19451
2636.34761	0.19405
2634.41904	0.19361
2632.49048	0.19317
2630.56191	0.19273
2628.63335	0.19219
2626.70479	0.19162
2624.77622	0.19119
2622.84766	0.19081
2620.91909	0.19044
2618.99053	0.19019
2617.06196	0.19001
2615.13340	0.18977
2613.20483	0.18942
2611.27627	0.18912
2609.34771	0.18893
2607.41914	0.18876
2605.49058	0.18864
2603.56201	0.18865
2601.63345	0.18870
2599.70488	0.18863
2597.77632	0.18840
2595.84775	0.18816
2593.91919	0.18810
2591.99062	0.18819
2590.06206	0.18833
2588.13350	0.18847
2586.20493	0.18860
2584.27637	0.18867
2582.34780	0.18867
2580.41924	0.18868
2578.49067	0.18880
2576.56211	0.18910
2574.63354	0.18953
2572.70498	0.18999
2570.77642	0.19036
2568.84785	0.19066
2566.91929	0.19096
2564.99072	0.19129
2563.06216	0.19160
2561.13359	0.19182
2559.20503	0.19212
2557.27646	0.19264
2555.34790	0.19325
2553.41934	0.19375
2551.49077	0.19418
2549.56221	0.19473
2547.63364	0.19531
2545.70508	0.19578
2543.77651	0.19619
2541.84795	0.19661
2539.91938	0.19705
2537.99082	0.19758
2536.06226	0.19815
2534.13369	0.19879
2532.20513	0.19965
2530.27656	0.20054
2528.34800	0.20113
2526.41943	0.20158
2524.49087	0.20224
2522.56230	0.20300
2520.63374	0.20370
2518.70518	0.20431
2516.77661	0.20484
2514.84805	0.20542
2512.91948	0.20613
2510.99092	0.20696
2509.06235	0.20790
2507.13379	0.20881
2505.20522	0.20950
2503.27666	0.21008
2501.34810	0.21080
2499.41953	0.21160
2497.49097	0.21238
2495.56240	0.21325
2493.63384	0.21419
2491.70527	0.21503
2489.77671	0.21573
2487.84814	0.21648
2485.91958	0.21739
2483.99102	0.21828
2482.06245	0.21907
2480.13389	0.21983
2478.20532	0.22058
2476.27676	0.22127
2474.34819	0.22206
2472.41963	0.22305
2470.49106	0.22408
2468.56250	0.22491
2466.63394	0.22560
2464.70537	0.22638
2462.77681	0.22726
2460.84824	0.22822
2458.91968	0.22927
2456.99111	0.23031
2455.06255	0.23124
2453.13398	0.23213
2451.20542	0.23306
2449.27686	0.23410
2447.34829	0.23513
2445.41973	0.23596
2443.49116	0.23669
2441.56260	0.23747
2439.63403	0.23831
2437.70547	0.23929
2435.77690	0.24049
2433.84834	0.24170
2431.91978	0.24263
2429.99121	0.24343
2428.06265	0.24435
2426.13408	0.24538
2424.20552	0.24641
2422.27695	0.24748
2420.34839	0.24853
2418.41982	0.24954
2416.49126	0.25065
2414.56270	0.25192
2412.63413	0.25318
2410.70557	0.25425
2408.77700	0.25525
2406.84844	0.25641
2404.91987	0.25762
2402.99131	0.25875
2401.06274	0.25985
2399.13418	0.26097
2397.20562	0.26214
2395.27705	0.26334
2393.34849	0.26460
2391.41992	0.26605
2389.49136	0.26768
2387.56279	0.26959
2385.63423	0.27214
2383.70566	0.27577
2381.77710	0.28066
2379.84854	0.28663
2377.91997	0.29322
2375.99141	0.30032
2374.06284	0.30862
2372.13428	0.31834
2370.20571	0.32901
2368.27715	0.34023
2366.34858	0.35104
2364.42002	0.35976
2362.49146	0.36602
2360.56289	0.37066
2358.63433	0.37227
2356.70576	0.36909
2354.77720	0.36241
2352.84863	0.35381
2350.92007	0.34478
2348.99150	0.33939
2347.06294	0.34013
2345.13437	0.34714
2343.20581	0.35669
2341.27725	0.36227
2339.34868	0.36323
2337.42012	0.36282
2335.49155	0.36282
2333.56299	0.36324
2331.63442	0.36396
2329.70586	0.36398
2327.77729	0.36310
2325.84873	0.36208
2323.92017	0.36088
2321.99160	0.35904
2320.06304	0.35673
2318.13447	0.35448
2316.20591	0.35257
2314.27734	0.35146
2312.34878	0.35136
2310.42021	0.35140
2308.49165	0.35074
2306.56309	0.34963
2304.63452	0.34881
2302.70596	0.34874
2300.77739	0.34923
2298.84883	0.34988
2296.92026	0.35065
2294.99170	0.35156
2293.06313	0.35243
2291.13457	0.35316
2289.20601	0.35390
2287.27744	0.35472
2285.34888	0.35566
2283.42031	0.35695
2281.49175	0.35878
2279.56318	0.36097
2277.63462	0.36316
2275.70605	0.36537
2273.77749	0.36762
2271.84893	0.36973
2269.92036	0.37163
2267.99180	0.37349
2266.06323	0.37551
2264.13467	0.37762
2262.20610	0.37965
2260.27754	0.38156
2258.34897	0.38340
2256.42041	0.38526
2254.49185	0.38726
2252.56328	0.38943
2250.63472	0.39162
2248.70615	0.39370
2246.77759	0.39567
2244.84902	0.39769
2242.92046	0.39990
2240.99189	0.40224
2239.06333	0.40448
2237.13477	0.40656
2235.20620	0.40860
2233.27764	0.41065
2231.34907	0.41274
2229.42051	0.41486
2227.49194	0.41703
2225.56338	0.41929
2223.63481	0.42152
2221.70625	0.42370
2219.77769	0.42594
2217.84912	0.42821
2215.92056	0.43037
2213.99199	0.43234
2212.06343	0.43434
2210.13486	0.43654
2208.20630	0.43880
2206.27773	0.44099
2204.34917	0.44312
2202.42061	0.44518
2200.49204	0.44716
2198.56348	0.44911
2196.63491	0.45097
2194.70635	0.45273
2192.77778	0.45457
2190.84922	0.45655
2188.92065	0.45853
2186.99209	0.46043
2185.06353	0.46220
2183.13496	0.46385
2181.20640	0.46554
2179.27783	0.46731
2177.34927	0.46891
2175.42070	0.47027
2173.49214	0.47165
2171.56357	0.47311
2169.63501	0.47453
2167.70645	0.47589
2165.77788	0.47723
2163.84932	0.47850
2161.92075	0.47966
2159.99219	0.48076
2158.06362	0.48185
2156.13506	0.48285
2154.20649	0.48369
2152.27793	0.48445
2150.34937	0.48508
2148.42080	0.48554
2146.49224	0.48595
2144.56367	0.48643
2142.63511	0.48694
2140.70654	0.48734
2138.77798	0.48761
2136.84941	0.48779
2134.92085	0.48796
2132.99229	0.48804
2131.06372	0.48792
2129.13516	0.48771
2127.20659	0.48746
2125.27803	0.48708
2123.34946	0.48655
2121.42090	0.48609
2119.49233	0.48568
2117.56377	0.48511
2115.63521	0.48429
2113.70664	0.48339
2111.77808	0.48248
2109.84951	0.48156
2107.92095	0.48053
2105.99238	0.47941
2104.06382	0.47829
2102.13525	0.47706
2100.20669	0.47571
2098.27812	0.47426
2096.34956	0.47273
2094.42100	0.47110
2092.49243	0.46953
2090.56387	0.46801
2088.63530	0.46636
2086.70674	0.46448
2084.77817	0.46239
2082.84961	0.46029
2080.92104	0.45830
2078.99248	0.45632
2077.06392	0.45428
2075.13535	0.45215
2073.20679	0.44998
2071.27822	0.44782
2069.34966	0.44563
2067.42109	0.44338
2065.49253	0.44112
2063.56396	0.43870
2061.63540	0.43612
2059.70684	0.43358
2057.77827	0.43097
2055.84971	0.42823
2053.92114	0.42554
2051.99258	0.42296
2050.06401	0.42039
2048.13545	0.41781
2046.20688	0.41515
2044.27832	0.41241
2042.34976	0.40965
2040.42119	0.40681
2038.49263	0.40392
2036.56406	0.40109
2034.63550	0.39830
2032.70693	0.39553
2030.77837	0.39278
2028.84980	0.39000
2026.92124	0.38726
2024.99268	0.38452
2023.06411	0.38170
2021.13555	0.37885
2019.20698	0.37619
2017.27842	0.37356
2015.34985	0.37061
2013.42129	0.36756
2011.49272	0.36471
2009.56416	0.36200
2007.63560	0.35916
2005.70703	0.35623
2003.77847	0.35344
2001.84990	0.35076
1999.92134	0.34808
1997.99277	0.34543
1996.06421	0.34291
1994.13564	0.34057
1992.20708	0.33826
1990.27852	0.33563
1988.34995	0.33285
1986.42139	0.33014
1984.49282	0.32756
1982.56426	0.32510
1980.63569	0.32270
1978.70713	0.32029
1976.77856	0.31798
1974.85000	0.31577
1972.92144	0.31352
1970.99287	0.31136
1969.06431	0.30949
1967.13574	0.30764
1965.20718	0.30540
1963.27861	0.30310
1961.35005	0.30105
1959.42148	0.29906
1957.49292	0.29716
1955.56436	0.29540
1953.63579	0.29361
1951.70723	0.29172
1949.77866	0.28994
1947.85010	0.28841
1945.92153	0.28713
1943.99297	0.28597
1942.06440	0.28444
1940.13584	0.28239
1938.20728	0.28050
1936.27871	0.27900
1934.35015	0.27761
1932.42158	0.27626
1930.49302	0.27494
1928.56445	0.27376
1926.63589	0.27278
1924.70732	0.27212
1922.77876	0.27152
1920.85020	0.27055
1918.92163	0.26951
1916.99307	0.26853
1915.06450	0.26730
1913.13594	0.26614
1911.20737	0.26540
1909.27881	0.26479
1907.35024	0.26398
1905.42168	0.26315
1903.49312	0.26245
1901.56455	0.26178
1899.63599	0.26119
1897.70742	0.26089
1895.77886	0.26068
1893.85029	0.26028
1891.92173	0.25987
1889.99316	0.25972
1888.06460	0.25935
1886.13604	0.25879
1884.20747	0.25843
1882.27891	0.25813
1880.35034	0.25791
1878.42178	0.25785
1876.49321	0.25781
1874.56465	0.25771
1872.63608	0.25784
1870.70752	0.25854
1868.77896	0.25975
1866.85039	0.26002
1864.92183	0.25917
1862.99326	0.25857
1861.06470	0.25859
1859.13613	0.25896
1857.20757	0.25934
1855.27900	0.25972
1853.35044	0.26009
1851.42187	0.26063
1849.49331	0.26142
1847.56475	0.26248
1845.63618	0.26376
1843.70762	0.26489
1841.77905	0.26515
1839.85049	0.26511
1837.92192	0.26566
1835.99336	0.26645
1834.06479	0.26729
1832.13623	0.26859
1830.20767	0.27063
1828.27910	0.27232
1826.35054	0.27317
1824.42197	0.27418
1822.49341	0.27504
1820.56484	0.27586
1818.63628	0.27701
1816.70771	0.27854
1814.77915	0.28021
1812.85059	0.28219
1810.92202	0.28450
1808.99346	0.28653
1807.06489	0.28815
1805.13633	0.28984
1803.20776	0.29226
1801.27920	0.29523
1799.35063	0.29812
1797.42207	0.30048
1795.49351	0.30299
1793.56494	0.30621
1791.63638	0.30989
1789.70781	0.31254
1787.77925	0.31446
1785.85068	0.31752
1783.92212	0.32146
1781.99355	0.32566
1780.06499	0.32995
1778.13643	0.33407
1776.20786	0.33803
1774.27930	0.34284
1772.35073	0.34945
1770.42217	0.35574
1768.49360	0.36015
1766.56504	0.36433
1764.63647	0.36908
1762.70791	0.37493
1760.77935	0.38241
1758.85078	0.38910
1756.92222	0.39565
1754.99365	0.40269
1753.06509	0.40921
1751.13652	0.41755
1749.20796	0.42828
1747.27939	0.43828
1745.35083	0.44658
1743.42227	0.45559
1741.49370	0.46593
1739.56514	0.47855
1737.63657	0.49139
1735.70801	0.50280
1733.77944	0.52030
1731.85088	0.54074
1729.92231	0.55596
1727.99375	0.57115
1726.06519	0.58773
1724.13662	0.60632
1722.20806	0.62656
1720.27949	0.64535
1718.35093	0.66795
1716.42236	0.70181
1714.49380	0.73261
1712.56523	0.75629
1710.63667	0.77951
1708.70811	0.80526
1706.77954	0.83528
1704.85098	0.87159
1702.92241	0.90364
1700.99385	0.93503
1699.06528	0.98317
1697.13672	1.02809
1695.20815	1.07341
1693.27959	1.11651
1691.35103	1.15147
1689.42246	1.19302
1687.49390	1.23741
1685.56533	1.28054
1683.63677	1.34918
1681.70820	1.41999
1679.77964	1.46292
1677.85107	1.50395
1675.92251	1.55229
1673.99395	1.61375
1672.06538	1.66859
1670.13682	1.72177
1668.20825	1.79139
1666.27969	1.84789
1664.35112	1.89738
1662.42256	1.96181
1660.49399	2.03444
1658.56543	2.08891
1656.63687	2.13399
1654.70830	2.17831
1652.77974	2.24381
1650.85117	2.29537
1648.92261	2.30908
1646.99404	2.33425
1645.06548	2.36342
1643.13691	2.38001
1641.20835	2.38715
1639.27979	2.39567
1637.35122	2.40124
1635.42266	2.39739
1633.49409	2.38654
1631.56553	2.37251
1629.63696	2.35542
1627.70840	2.32510
1625.77983	2.28959
1623.85127	2.24447
1621.92271	2.18865
1619.99414	2.14088
1618.06558	2.09626
1616.13701	2.02893
1614.20845	1.95855
1612.27988	1.90728
1610.35132	1.85573
1608.42275	1.79980
1606.49419	1.74347
1604.56562	1.69115
1602.63706	1.64109
1600.70850	1.59287
1598.77993	1.54884
1596.85137	1.50759
1594.92280	1.46751
1592.99424	1.42890
1591.06567	1.39376
1589.13711	1.36072
1587.20854	1.32997
1585.27998	1.30201
1583.35142	1.27650
1581.42285	1.25359
1579.49429	1.23461
1577.56572	1.21819
1575.63716	1.19752
1573.70859	1.17925
1571.78003	1.16850
1569.85146	1.15821
1567.92290	1.14642
1565.99434	1.13802
1564.06577	1.13310
1562.13721	1.13064
1560.20864	1.13111
1558.28008	1.13529
1556.35151	1.13885
1554.42295	1.14027
1552.49438	1.14186
1550.56582	1.14229
1548.63726	1.13995
1546.70869	1.13499
1544.78013	1.12774
1542.85156	1.11771
1540.92300	1.10060
1538.99443	1.06811
1537.06587	1.04351
1535.13730	1.02811
1533.20874	1.00761
1531.28018	0.98524
1529.35161	0.96948
1527.42305	0.95524
1525.49448	0.94070
1523.56592	0.92877
1521.63735	0.91727
1519.70879	0.90444
1517.78022	0.89352
1515.85166	0.88100
1513.92310	0.86756
1511.99453	0.85606
1510.06597	0.84639
1508.13740	0.83775
1506.20884	0.82165
1504.28027	0.80607
1502.35171	0.79790
1500.42314	0.79148
1498.49458	0.78487
1496.56602	0.77663
1494.63745	0.76803
1492.70889	0.76195
1490.78032	0.75750
1488.85176	0.75200
1486.92319	0.74539
1484.99463	0.73977
1483.06606	0.73589
1481.13750	0.73321
1479.20894	0.73134
1477.28037	0.73066
1475.35181	0.73096
1473.42324	0.73127
1471.49468	0.72988
1469.56611	0.72705
1467.63755	0.72462
1465.70898	0.72330
1463.78042	0.72263
1461.85186	0.72230
1459.92329	0.72317
1457.99473	0.72525
1456.06616	0.72504
1454.13760	0.72137
1452.20903	0.71802
1450.28047	0.71525
1448.35190	0.71263
1446.42334	0.70964
1444.49478	0.70667
1442.56621	0.70393
1440.63765	0.70107
1438.70908	0.69832
1436.78052	0.69525
1434.85195	0.69139
1432.92339	0.68816
1430.99482	0.68622
1429.06626	0.68518
1427.13770	0.68474
1425.20913	0.68515
1423.28057	0.68624
1421.35200	0.68711
1419.42344	0.68780
1417.49487	0.68777
1415.56631	0.68641
1413.63774	0.68528
1411.70918	0.68506
1409.78062	0.68551
1407.85205	0.68655
1405.92349	0.68836
1403.99492	0.69010
1402.06636	0.69051
1400.13779	0.69003
1398.20923	0.68901
1396.28066	0.68700
1394.35210	0.68324
1392.42354	0.67817
1390.49497	0.67354
1388.56641	0.66935
1386.63784	0.66428
1384.70928	0.65847
1382.78071	0.65318
1380.85215	0.64854
1378.92358	0.64459
1376.99502	0.64175
1375.06646	0.64024
1373.13789	0.63926
1371.20933	0.63818
1369.28076	0.63732
1367.35220	0.63632
1365.42363	0.63490
1363.49507	0.63357
1361.56650	0.63212
1359.63794	0.63017
1357.70937	0.62834
1355.78081	0.62692
1353.85225	0.62569
1351.92368	0.62457
1349.99512	0.62365
1348.06655	0.62275
1346.13799	0.62181
1344.20942	0.62097
1342.28086	0.62042
1340.35229	0.62027
1338.42373	0.61984
1336.49517	0.61874
1334.56660	0.61769
1332.63804	0.61719
1330.70947	0.61729
1328.78091	0.61780
1326.85234	0.61846
1324.92378	0.61921
1322.99521	0.62004
1321.06665	0.62099
1319.13809	0.62195
1317.20952	0.62242
1315.28096	0.62233
1313.35239	0.62204
1311.42383	0.62132
1309.49526	0.62024
1307.56670	0.61932
1305.63813	0.61864
1303.70957	0.61793
1301.78101	0.61711
1299.85244	0.61624
1297.92388	0.61517
1295.99531	0.61378
1294.06675	0.61234
1292.13818	0.61095
1290.20962	0.60950
1288.28105	0.60804
1286.35249	0.60664
1284.42393	0.60531
1282.49536	0.60401
1280.56680	0.60267
1278.63823	0.60115
1276.70967	0.59955
1274.78110	0.59813
1272.85254	0.59694
1270.92397	0.59598
1268.99541	0.59506
1267.06685	0.59410
1265.13828	0.59315
1263.20972	0.59221
1261.28115	0.59125
1259.35259	0.59040
1257.42402	0.58978
1255.49546	0.58940
1253.56689	0.58936
1251.63833	0.58954
1249.70977	0.58968
1247.78120	0.58976
1245.85264	0.58968
1243.92407	0.58910
1241.99551	0.58798
1240.06694	0.58654
1238.13838	0.58472
1236.20981	0.58247
1234.28125	0.58004
1232.35269	0.57762
1230.42412	0.57526
1228.49556	0.57296
1226.56699	0.57072
1224.63843	0.56858
1222.70986	0.56665
1220.78130	0.56494
1218.85273	0.56330
1216.92417	0.56166
1214.99561	0.56025
1213.06704	0.55916
1211.13848	0.55822
1209.20991	0.55737
1207.28135	0.55670
1205.35278	0.55603
1203.42422	0.55509
1201.49565	0.55399
1199.56709	0.55297
1197.63853	0.55203
1195.70996	0.55099
1193.78140	0.55005
1191.85283	0.54942
1189.92427	0.54882
1187.99570	0.54819
1186.06714	0.54783
1184.13857	0.54786
1182.21001	0.54820
1180.28145	0.54899
1178.35288	0.55039
1176.42432	0.55204
1174.49575	0.55339
1172.56719	0.55431
1170.63862	0.55502
1168.71006	0.55566
1166.78149	0.55619
1164.85293	0.55658
1162.92437	0.55677
1160.99580	0.55685
1159.06724	0.55692
1157.13867	0.55674
1155.21011	0.55605
1153.28154	0.55484
1151.35298	0.55317
1149.42441	0.55092
1147.49585	0.54796
1145.56729	0.54465
1143.63872	0.54163
1141.71016	0.53924
1139.78159	0.53735
1137.85303	0.53589
1135.92446	0.53502
1133.99590	0.53465
1132.06733	0.53459
1130.13877	0.53470
1128.21021	0.53479
1126.28164	0.53476
1124.35308	0.53449
1122.42451	0.53417
1120.49595	0.53427
1118.56738	0.53479
1116.63882	0.53548
1114.71025	0.53619
1112.78169	0.53678
1110.85312	0.53736
1108.92456	0.53806
1106.99600	0.53870
1105.06743	0.53934
1103.13887	0.54019
1101.21030	0.54133
1099.28174	0.54286
1097.35317	0.54488
1095.42461	0.54739
1093.49604	0.55056
1091.56748	0.55489
1089.63892	0.56083
1087.71035	0.56843
1085.78179	0.57706
1083.85322	0.58565
1081.92466	0.59318
1079.99609	0.59856
1078.06753	0.60104
1076.13896	0.60047
1074.21040	0.59711
1072.28184	0.59165
1070.35327	0.58500
1068.42471	0.57791
1066.49614	0.57101
1064.56758	0.56484
1062.63901	0.55961
1060.71045	0.55511
1058.78188	0.55117
1056.85332	0.54778
1054.92476	0.54455
1052.99619	0.54136
1051.06763	0.53881
1049.13906	0.53712
1047.21050	0.53594
1045.28193	0.53531
1043.35337	0.53525
1041.42480	0.53538
1039.49624	0.53542
1037.56768	0.53529
1035.63911	0.53489
1033.71055	0.53407
1031.78198	0.53272
1029.85342	0.53096
1027.92485	0.52908
1025.99629	0.52732
1024.06772	0.52585
1022.13916	0.52489
1020.21060	0.52452
1018.28203	0.52430
1016.35347	0.52380
1014.42490	0.52315
1012.49634	0.52266
1010.56777	0.52244
1008.63921	0.52260
1006.71064	0.52312
1004.78208	0.52404
1002.85352	0.52562
1000.92495	0.52798
998.99639	0.53110
997.06782	0.53496
995.13926	0.53930
993.21069	0.54350
991.28213	0.54682
989.35356	0.54869
987.42500	0.54933
985.49644	0.54936
983.56787	0.54899
981.63931	0.54863
979.71074	0.54909
977.78218	0.55048
975.85361	0.55235
973.92505	0.55455
971.99648	0.55705
970.06792	0.55986
968.13936	0.56317
966.21079	0.56710
964.28223	0.57135
962.35366	0.57571
960.42510	0.58047
958.49653	0.58586
956.56797	0.59150
954.63940	0.59715
952.71084	0.60317
950.78228	0.60956
948.85371	0.61581
946.92515	0.62198
944.99658	0.62815
943.06802	0.63406
941.13945	0.64015
939.21089	0.64641
937.28232	0.65227
935.35376	0.65807
933.42520	0.66365
931.49663	0.66892
929.56807	0.67453
927.63950	0.68033
925.71094	0.68627
923.78237	0.69284
921.85381	0.69981
919.92524	0.70659
917.99668	0.71319
916.06812	0.72029
914.13955	0.72826
912.21099	0.73640
910.28242	0.74385
908.35386	0.75112
906.42529	0.75958
904.49673	0.76908
902.56816	0.77833
900.63960	0.78751
898.71104	0.79766
896.78247	0.80850
894.85391	0.81843
892.92534	0.82712
890.99678	0.83667
889.06821	0.84829
887.13965	0.86066
885.21108	0.87228
883.28252	0.88241
881.35396	0.89159
879.42539	0.90187
877.49683	0.91362
875.56826	0.92495
873.63970	0.93530
871.71113	0.94608
869.78257	0.95819
867.85400	0.97093
865.92544	0.98350
863.99687	0.99570
862.06831	1.00739
860.13975	1.01812
858.21118	1.02914
856.28262	1.04225
854.35405	1.05606
852.42549	1.06864
850.49692	1.07966
848.56836	1.08998
846.63979	1.10154
844.71123	1.11292
842.78267	1.12137
840.85410	1.13047
838.92554	1.14289
836.99697	1.15559
835.06841	1.16879
833.13984	1.18325
831.21128	1.19520
829.28271	1.20468
827.35415	1.21504
825.42559	1.22538
823.49702	1.23505
821.56846	1.24590
819.63989	1.25699
817.71133	1.26725
815.78276	1.28233
813.85420	1.30480
811.92563	1.32333
809.99707	1.32931
808.06851	1.33220
806.13994	1.34711
804.21138	1.37522
802.28281	1.40662
800.35425	1.42541
798.42568	1.40943
796.49712	1.38264
794.56855	1.40020
792.63999	1.45615
790.71143	1.49166
788.78286	1.50852
786.85430	1.53822
784.92573	1.58168
782.99717	1.58148
781.06860	1.60711
779.14004	1.78652
777.21147	1.95090
775.28291	1.83041
773.35435	1.67157
771.42578	1.49237
769.49722	1.37616
767.56865	1.33639
765.64009	1.32172
763.71152	1.30194
761.78296	1.30833
759.85439	1.32432
757.92583	1.31623
755.99727	1.28619
754.06870	1.20649
752.14014	1.14162
750.21157	1.17587
748.28301	1.28121
746.35444	1.34014
744.42588	1.33287
742.49731	1.21007
740.56875	1.04516
738.64019	0.92246
736.71162	0.76483
734.78306	0.62912
732.85449	0.59091
730.92593	0.61623
728.99736	0.63129
727.06880	0.49800
725.14023	0.20910
723.21167	0.03739
721.28311	-0.02589
719.35454	-0.19918
717.42598	-0.42831
715.49741	-0.31791
713.56885	-0.29603
711.64028	-0.46482
709.71172	-0.72133
707.78315	-0.58700
705.85459	-0.24190
703.92603	0.09320
701.99746	0.41285
700.06890	0.60695
698.14033	0.44439
696.21177	0.35179
694.28320	0.36543
692.35464	0.30192
690.42607	0.20154
688.49751	0.18933
686.56895	0.26260
684.64038	0.31651
682.71182	0.35771
680.78325	0.45926
678.85469	0.46946
676.92612	0.37730
674.99756	0.33248
673.06899	0.31602
671.14043	0.30325
669.21187	0.28665
667.28330	0.24030
665.35474	0.19958
663.42617	0.23205
661.49761	0.33167
659.56904	0.39689
657.64048	0.39209
655.71191	0.36036
653.78335	0.29586
651.85479	0.24528
649.92622	0.22856
647.99766	0.22433
646.06909	0.21994
644.14053	0.26210
642.21196	0.35161
640.28340	0.37561
638.35483	0.29620
636.42627	0.27827
634.49771	0.38493
632.56914	0.48561
630.64058	0.45942
628.71201	0.45400
626.78345	0.43850
624.85488	0.35664
622.92632	0.29435
620.99775	0.26748
619.06919	0.23752
617.14062	0.19839
615.21206	0.20313
613.28350	0.25855
611.35493	0.28353
609.42637	0.27872
607.49780	0.29181
605.56924	0.32349
603.64067	0.33556
601.71211	0.31542
599.78354	0.28717
597.85498	0.28155
595.92642	0.30882
593.99785	0.33988
592.06929	0.38306
590.14072	0.41091
588.21216	0.36465
586.28359	0.31091
584.35503	0.29377
582.42646	0.29369
580.49790	0.26466
578.56934	0.22135
576.64077	0.22215
574.71221	0.24619
572.78364	0.26316
570.85508	0.28195
568.92651	0.27756
566.99795	0.20826
565.06938	0.16158
563.14082	0.19673
561.21226	0.29739
559.28369	0.42312
557.35513	0.42818
555.42656	0.33778
553.49800	0.26043
551.56943	0.23646
549.64087	0.19877
547.71230	0.12862
545.78374	0.12898
543.85518	0.18896
541.92661	0.25124
539.99805	0.28877
538.06948	0.26951
536.14092	0.22755
534.21235	0.21009
532.28379	0.21842
530.35522	0.25873
528.42666	0.28420
526.49810	0.27749
524.56953	0.29171
522.64097	0.30490
520.71240	0.28786
518.78384	0.26805
516.85527	0.28024
514.92671	0.31572
512.99814	0.32204
511.06958	0.28700
509.14102	0.25929
507.21245	0.23293
505.28389	0.20042
503.35532	0.18219
501.42676	0.18376
499.49819	0.18174
