3997.91411	0.05154
3995.98555	0.05186
3994.05698	0.05240
3992.12842	0.05289
3990.19985	0.05347
3988.27129	0.05398
3986.34272	0.05406
3984.41416	0.05416
3982.48560	0.05450
3980.55703	0.05481
3978.62847	0.05511
3976.69990	0.05554
3974.77134	0.05596
3972.84277	0.05622
3970.91421	0.05641
3968.98564	0.05651
3967.05708	0.05645
3965.12852	0.05640
3963.19995	0.05656
3961.27139	0.05687
3959.34282	0.05723
3957.41426	0.05751
3955.48569	0.05752
3953.55713	0.05710
3951.62856	0.05636
3949.70000	0.05611
3947.77144	0.05689
3945.84287	0.05758
3943.91431	0.05754
3941.98574	0.05760
3940.05718	0.05786
3938.12861	0.05771
3936.20005	0.05733
3934.27148	0.05725
3932.34292	0.05770
3930.41436	0.05819
3928.48579	0.05809
3926.55723	0.05772
3924.62866	0.05769
3922.70010	0.05777
3920.77153	0.05748
3918.84297	0.05729
3916.91440	0.05760
3914.98584	0.05759
3913.05728	0.05672
3911.12871	0.05594
3909.20015	0.05587
3907.27158	0.05626
3905.34302	0.05688
3903.41445	0.05777
3901.48589	0.05844
3899.55732	0.05865
3897.62876	0.05849
3895.70020	0.05771
3893.77163	0.05714
3891.84307	0.05768
3889.91450	0.05836
3887.98594	0.05775
3886.05737	0.05714
3884.12881	0.05756
3882.20024	0.05809
3880.27168	0.05848
3878.34312	0.05870
3876.41455	0.05831
3874.48599	0.05835
3872.55742	0.05886
3870.62886	0.05903
3868.70029	0.05940
3866.77173	0.06001
3864.84316	0.06094
3862.91460	0.06205
3860.98604	0.06195
3859.05747	0.06109
3857.12891	0.06070
3855.20034	0.06114
3853.27178	0.06279
3851.34321	0.06464
3849.41465	0.06455
3847.48608	0.06386
3845.55752	0.06345
3843.62896	0.06389
3841.70039	0.06527
3839.77183	0.06661
3837.84326	0.06746
3835.91470	0.06827
3833.98613	0.06926
3832.05757	0.06993
3830.12900	0.06983
3828.20044	0.06969
3826.27187	0.07055
3824.34331	0.07174
3822.41475	0.07261
3820.48618	0.07416
3818.55762	0.07538
3816.62905	0.07577
3814.70049	0.07675
3812.77192	0.07717
3810.84336	0.07697
3808.91479	0.07736
3806.98623	0.07899
3805.05767	0.08119
3803.12910	0.08246
3801.20054	0.08373
3799.27197	0.08540
3797.34341	0.08661
3795.41484	0.08787
3793.48628	0.08868
3791.55771	0.08913
3789.62915	0.08999
3787.70059	0.09117
3785.77202	0.09268
3783.84346	0.09443
3781.91489	0.09575
3779.98633	0.09713
3778.05776	0.09924
3776.12920	0.10057
3774.20063	0.10123
3772.27207	0.10254
3770.34351	0.10483
3768.41494	0.10796
3766.48638	0.11077
3764.55781	0.11283
3762.62925	0.11447
3760.70068	0.11636
3758.77212	0.11904
3756.84355	0.12138
3754.91499	0.12271
3752.98643	0.12425
3751.05786	0.12758
3749.12930	0.13278
3747.20073	0.13609
3745.27217	0.13806
3743.34360	0.14232
3741.41504	0.14677
3739.48647	0.14916
3737.55791	0.15215
3735.62935	0.15752
3733.70078	0.16430
3731.77222	0.16957
3729.84365	0.17317
3727.91509	0.17667
3725.98652	0.18174
3724.05796	0.18814
3722.12939	0.19468
3720.20083	0.20174
3718.27227	0.20912
3716.34370	0.21646
3714.41514	0.22372
3712.48657	0.23264
3710.55801	0.24637
3708.62944	0.26193
3706.70088	0.27414
3704.77231	0.28501
3702.84375	0.29798
3700.91519	0.31542
3698.98662	0.33389
3697.05806	0.35075
3695.12949	0.36914
3693.20093	0.38904
3691.27236	0.41045
3689.34380	0.43911
3687.41523	0.47553
3685.48667	0.50662
3683.55811	0.53279
3681.62954	0.56095
3679.70098	0.59251
3677.77241	0.62518
3675.84385	0.66423
3673.91528	0.71891
3671.98672	0.76265
3670.05815	0.80069
3668.12959	0.85589
3666.20103	0.90651
3664.27246	0.94700
3662.34390	0.98989
3660.41533	1.03726
3658.48677	1.08460
3656.55820	1.13497
3654.62964	1.19124
3652.70107	1.23722
3650.77251	1.27543
3648.84395	1.33067
3646.91538	1.40294
3644.98682	1.45485
3643.05825	1.49358
3641.12969	1.53391
3639.20112	1.57899
3637.27256	1.62407
3635.34399	1.66722
3633.41543	1.70986
3631.48687	1.74965
3629.55830	1.79055
3627.62974	1.84633
3625.70117	1.89835
3623.77261	1.93224
3621.84404	1.96452
3619.91548	2.00194
3617.98691	2.04852
3616.05835	2.09409
3614.12979	2.13163
3612.20122	2.17016
3610.27266	2.20844
3608.34409	2.24821
3606.41553	2.29194
3604.48696	2.33227
3602.55840	2.36833
3600.62983	2.40749
3598.70127	2.44872
3596.77271	2.48789
3594.84414	2.52858
3592.91558	2.57075
3590.98701	2.60897
3589.05845	2.64393
3587.12988	2.68749
3585.20132	2.73779
3583.27275	2.78036
3581.34419	2.81816
3579.41562	2.85765
3577.48706	2.90082
3575.55850	2.94546
3573.62993	2.98911
3571.70137	3.02943
3569.77280	3.06784
3567.84424	3.11013
3565.91567	3.16329
3563.98711	3.21412
3562.05854	3.25482
3560.12998	3.29689
3558.20142	3.34269
3556.27285	3.38871
3554.34429	3.43286
3552.41572	3.47728
3550.48716	3.52229
3548.55859	3.56766
3546.63003	3.61522
3544.70146	3.66580
3542.77290	3.71599
3540.84434	3.76352
3538.91577	3.80880
3536.98721	3.85192
3535.05864	3.89661
3533.13008	3.94385
3531.20151	3.99278
3529.27295	4.04117
3527.34438	4.08850
3525.41582	4.13604
3523.48726	4.18496
3521.55869	4.23712
3519.63013	4.28756
3517.70156	4.33358
3515.77300	4.37785
3513.84443	4.42395
3511.91587	4.47357
3509.98730	4.52417
3508.05874	4.57209
3506.13018	4.61713
3504.20161	4.66020
3502.27305	4.70268
3500.34448	4.74946
3498.41592	4.80219
3496.48735	4.85533
3494.55879	4.90210
3492.63022	4.94611
3490.70166	4.99382
3488.77310	5.04364
3486.84453	5.09436
3484.91597	5.14372
3482.98740	5.18705
3481.05884	5.23147
3479.13027	5.28561
3477.20171	5.34298
3475.27314	5.38951
3473.34458	5.42471
3471.41602	5.46289
3469.48745	5.50385
3467.55889	5.54646
3465.63032	5.60181
3463.70176	5.66275
3461.77319	5.71130
3459.84463	5.75555
3457.91606	5.80958
3455.98750	5.86664
3454.05894	5.91763
3452.13037	5.96647
3450.20181	6.01194
3448.27324	6.04899
3446.34468	6.09738
3444.41611	6.16173
3442.48755	6.21320
3440.55898	6.25787
3438.63042	6.32044
3436.70186	6.36381
3434.77329	6.37375
3432.84473	6.40720
3430.91616	6.46624
3428.98760	6.51997
3427.05903	6.58546
3425.13047	6.67094
3423.20190	6.72967
3421.27334	6.75617
3419.34478	6.77747
3417.41621	6.78458
3415.48765	6.79513
3413.55908	6.85484
3411.63052	6.94919
3409.70195	7.00194
3407.77339	7.02329
3405.84482	7.06927
3403.91626	7.13769
3401.98770	7.19404
3400.05913	7.21466
3398.13057	7.21682
3396.20200	7.23003
3394.27344	7.24676
3392.34487	7.25676
3390.41631	7.29591
3388.48774	7.37605
3386.55918	7.46912
3384.63062	7.50844
3382.70205	7.51092
3380.77349	7.54018
3378.84492	7.56719
3376.91636	7.59805
3374.98779	7.65822
3373.05923	7.73016
3371.13066	7.75545
3369.20210	7.71577
3367.27354	7.68315
3365.34497	7.72068
3363.41641	7.77507
3361.48784	7.79792
3359.55928	7.83295
3357.63071	7.83713
3355.70215	7.78856
3353.77358	7.77884
3351.84502	7.82562
3349.91646	7.84602
3347.98789	7.87075
3346.05933	7.94489
3344.13076	8.01294
3342.20220	8.05726
3340.27363	8.07445
3338.34507	8.06327
3336.41650	8.04226
3334.48794	8.04104
3332.55937	8.04990
3330.63081	8.03863
3328.70225	8.00534
3326.77368	8.00856
3324.84512	8.05163
3322.91655	8.05660
3320.98799	8.01058
3319.05942	7.96657
3317.13086	7.97277
3315.20229	7.99398
3313.27373	8.04883
3311.34517	8.11329
3309.41660	8.07622
3307.48804	7.98970
3305.55947	7.98350
3303.63091	8.08108
3301.70234	8.13073
3299.77378	8.08202
3297.84521	8.03315
3295.91665	8.01353
3293.98809	8.04059
3292.05952	8.10659
3290.13096	8.11025
3288.20239	8.03757
3286.27383	7.98411
3284.34526	7.96960
3282.41670	8.00165
3280.48813	8.03339
3278.55957	7.99366
3276.63101	7.94786
3274.70244	7.98880
3272.77388	8.00579
3270.84531	7.93240
3268.91675	7.94996
3266.98818	8.06060
3265.05962	8.09623
3263.13105	8.02255
3261.20249	7.94696
3259.27393	7.96014
3257.34536	8.07174
3255.41680	8.22337
3253.48823	8.29824
3251.55967	8.25818
3249.63110	8.19030
3247.70254	8.08007
3245.77397	7.96300
3243.84541	7.94418
3241.91685	7.94874
3239.98828	7.93844
3238.05972	7.92356
3236.13115	7.84545
3234.20259	7.79399
3232.27402	7.85734
3230.34546	7.95340
3228.41689	7.96419
3226.48833	7.89442
3224.55977	7.82400
3222.63120	7.78133
3220.70264	7.74572
3218.77407	7.74354
3216.84551	7.75923
3214.91694	7.70286
3212.98838	7.62118
3211.05981	7.62330
3209.13125	7.65068
3207.20269	7.60360
3205.27412	7.54622
3203.34556	7.54957
3201.41699	7.61519
3199.48843	7.69112
3197.55986	7.67561
3195.63130	7.58068
3193.70273	7.51947
3191.77417	7.52421
3189.84561	7.52834
3187.91704	7.47674
3185.98848	7.39331
3184.05991	7.31573
3182.13135	7.25636
3180.20278	7.20081
3178.27422	7.13381
3176.34565	7.06636
3174.41709	7.00338
3172.48853	6.96407
3170.55996	6.94765
3168.63140	6.89887
3166.70283	6.81405
3164.77427	6.74015
3162.84570	6.68360
3160.91714	6.62268
3158.98857	6.55862
3157.06001	6.49790
3155.13145	6.43472
3153.20288	6.37421
3151.27432	6.32019
3149.34575	6.26075
3147.41719	6.19490
3145.48862	6.12550
3143.56006	6.04643
3141.63149	5.97215
3139.70293	5.91445
3137.77437	5.85906
3135.84580	5.79559
3133.91724	5.72722
3131.98867	5.65609
3130.06011	5.58272
3128.13154	5.50828
3126.20298	5.43736
3124.27441	5.37443
3122.34585	5.30649
3120.41729	5.22421
3118.48872	5.14049
3116.56016	5.06902
3114.63159	5.00883
3112.70303	4.94949
3110.77446	4.88526
3108.84590	4.81662
3106.91733	4.74879
3104.98877	4.68666
3103.06021	4.62867
3101.13164	4.56946
3099.20308	4.50375
3097.27451	4.43349
3095.34595	4.36566
3093.41738	4.30238
3091.48882	4.24288
3089.56025	4.18402
3087.63169	4.12128
3085.70312	4.05746
3083.77456	3.99685
3081.84600	3.93728
3079.91743	3.87738
3077.98887	3.81935
3076.06030	3.76201
3074.13174	3.70305
3072.20317	3.64481
3070.27461	3.59001
3068.34604	3.53735
3066.41748	3.48357
3064.48892	3.42858
3062.56035	3.37483
3060.63179	3.32252
3058.70322	3.27054
3056.77466	3.21753
3054.84609	3.16307
3052.91753	3.11032
3050.98896	3.06141
3049.06040	3.01373
3047.13184	2.96478
3045.20327	2.91497
3043.27471	2.86541
3041.34614	2.81742
3039.41758	2.77188
3037.48901	2.72660
3035.56045	2.67998
3033.63188	2.63417
3031.70332	2.59005
3029.77476	2.54633
3027.84619	2.50310
3025.91763	2.46080
3023.98906	2.41869
3022.06050	2.37676
3020.13193	2.33592
3018.20337	2.29624
3016.27480	2.25679
3014.34624	2.21715
3012.41768	2.17795
3010.48911	2.13958
3008.56055	2.10238
3006.63198	2.06650
3004.70342	2.03116
3002.77485	1.99632
3000.84629	1.96262
2998.91772	1.93004
2996.98916	1.89813
2995.06060	1.86657
2993.13203	1.83549
2991.20347	1.80521
2989.27490	1.77557
2987.34634	1.74630
2985.41777	1.71760
2983.48921	1.68974
2981.56064	1.66260
2979.63208	1.63608
2977.70352	1.61009
2975.77495	1.58434
2973.84639	1.55893
2971.91782	1.53423
2969.98926	1.51002
2968.06069	1.48604
2966.13213	1.46211
2964.20356	1.43783
2962.27500	1.41336
2960.34644	1.38908
2958.41787	1.36478
2956.48931	1.34056
2954.56074	1.31668
2952.63218	1.29297
2950.70361	1.26964
2948.77505	1.24692
2946.84648	1.22449
2944.91792	1.20249
2942.98936	1.18139
2941.06079	1.16093
2939.13223	1.14021
2937.20366	1.11893
2935.27510	1.09734
2933.34653	1.07591
2931.41797	1.05500
2929.48940	1.03497
2927.56084	1.01598
2925.63228	0.99745
2923.70371	0.97859
2921.77515	0.95958
2919.84658	0.94133
2917.91802	0.92398
2915.98945	0.90734
2914.06089	0.89149
2912.13232	0.87623
2910.20376	0.86144
2908.27520	0.84688
2906.34663	0.83236
2904.41807	0.81791
2902.48950	0.80374
2900.56094	0.79007
2898.63237	0.77672
2896.70381	0.76354
2894.77524	0.75074
2892.84668	0.73845
2890.91812	0.72670
2888.98955	0.71539
2887.06099	0.70440
2885.13242	0.69383
2883.20386	0.68379
2881.27529	0.67416
2879.34673	0.66458
2877.41816	0.65479
2875.48960	0.64499
2873.56104	0.63492
2871.63247	0.62425
2869.70391	0.61303
2867.77534	0.60110
2865.84678	0.58852
2863.91821	0.57600
2861.98965	0.56394
2860.06108	0.55227
2858.13252	0.54119
2856.20396	0.53086
2854.27539	0.52105
2852.34683	0.51175
2850.41826	0.50334
2848.48970	0.49564
2846.56113	0.48805
2844.63257	0.48066
2842.70400	0.47399
2840.77544	0.46799
2838.84687	0.46233
2836.91831	0.45689
2834.98975	0.45153
2833.06118	0.44598
2831.13262	0.44011
2829.20405	0.43407
2827.27549	0.42803
2825.34692	0.42209
2823.41836	0.41616
2821.48979	0.41019
2819.56123	0.40432
2817.63267	0.39871
2815.70410	0.39330
2813.77554	0.38780
2811.84697	0.38219
2809.91841	0.37666
2807.98984	0.37131
2806.06128	0.36613
2804.13271	0.36093
2802.20415	0.35560
2800.27559	0.35044
2798.34702	0.34559
2796.41846	0.34074
2794.48989	0.33574
2792.56133	0.33083
2790.63276	0.32629
2788.70420	0.32184
2786.77563	0.31731
2784.84707	0.31290
2782.91851	0.30859
2780.98994	0.30441
2779.06138	0.30043
2777.13281	0.29654
2775.20425	0.29285
2773.27568	0.28917
2771.34712	0.28516
2769.41855	0.28104
2767.48999	0.27713
2765.56143	0.27335
2763.63286	0.26962
2761.70430	0.26612
2759.77573	0.26281
2757.84717	0.25950
2755.91860	0.25623
2753.99004	0.25299
2752.06147	0.24978
2750.13291	0.24673
2748.20435	0.24382
2746.27578	0.24099
2744.34722	0.23817
2742.41865	0.23539
2740.49009	0.23270
2738.56152	0.23002
2736.63296	0.22735
2734.70439	0.22484
2732.77583	0.22235
2730.84727	0.21971
2728.91870	0.21710
2726.99014	0.21472
2725.06157	0.21244
2723.13301	0.21022
2721.20444	0.20812
2719.27588	0.20612
2717.34731	0.20417
2715.41875	0.20224
2713.49019	0.20036
2711.56162	0.19849
2709.63306	0.19657
2707.70449	0.19472
2705.77593	0.19314
2703.84736	0.19170
2701.91880	0.19019
2699.99023	0.18855
2698.06167	0.18682
2696.13311	0.18517
2694.20454	0.18367
2692.27598	0.18218
2690.34741	0.18078
2688.41885	0.17966
2686.49028	0.17864
2684.56172	0.17742
2682.63315	0.17600
2680.70459	0.17461
2678.77603	0.17336
2676.84746	0.17224
2674.91890	0.17127
2672.99033	0.17033
2671.06177	0.16930
2669.13320	0.16821
2667.20464	0.16714
2665.27607	0.16615
2663.34751	0.16530
2661.41895	0.16448
2659.49038	0.16355
2657.56182	0.16259
2655.63325	0.16178
2653.70469	0.16109
2651.77612	0.16041
2649.84756	0.15977
2647.91899	0.15921
2645.99043	0.15858
2644.06187	0.15781
2642.13330	0.15713
2640.20474	0.15669
2638.27617	0.15633
2636.34761	0.15586
2634.41904	0.15524
2632.49048	0.15460
2630.56191	0.15409
2628.63335	0.15369
2626.70479	0.15331
2624.77622	0.15298
2622.84766	0.15272
2620.91909	0.15235
2618.99053	0.15197
2617.06196	0.15185
2615.13340	0.15181
2613.20483	0.15161
2611.27627	0.15131
2609.34771	0.15099
2607.41914	0.15079
2605.49058	0.15065
2603.56201	0.15047
2601.63345	0.15043
2599.70488	0.15055
2597.77632	0.15065
2595.84775	0.15071
2593.91919	0.15080
2591.99062	0.15094
2590.06206	0.15099
2588.13350	0.15097
2586.20493	0.15104
2584.27637	0.15119
2582.34780	0.15128
2580.41924	0.15141
2578.49067	0.15160
2576.56211	0.15180
2574.63354	0.15206
2572.70498	0.15232
2570.77642	0.15261
2568.84785	0.15302
2566.91929	0.15348
2564.99072	0.15384
2563.06216	0.15417
2561.13359	0.15457
2559.20503	0.15500
2557.27646	0.15544
2555.34790	0.15591
2553.41934	0.15640
2551.49077	0.15688
2549.56221	0.15735
2547.63364	0.15785
2545.70508	0.15837
2543.77651	0.15892
2541.84795	0.15954
2539.91938	0.16021
2537.99082	0.16079
2536.06226	0.16124
2534.13369	0.16176
2532.20513	0.16241
2530.27656	0.16300
2528.34800	0.16352
2526.41943	0.16423
2524.49087	0.16508
2522.56230	0.16580
2520.63374	0.16650
2518.70518	0.16735
2516.77661	0.16818
2514.84805	0.16886
2512.91948	0.16954
2510.99092	0.17030
2509.06235	0.17112
2507.13379	0.17205
2505.20522	0.17300
2503.27666	0.17379
2501.34810	0.17436
2499.41953	0.17492
2497.49097	0.17556
2495.56240	0.17619
2493.63384	0.17692
2491.70527	0.17794
2489.77671	0.17917
2487.84814	0.18029
2485.91958	0.18114
2483.99102	0.18186
2482.06245	0.18268
2480.13389	0.18357
2478.20532	0.18437
2476.27676	0.18501
2474.34819	0.18569
2472.41963	0.18653
2470.49106	0.18754
2468.56250	0.18862
2466.63394	0.18964
2464.70537	0.19054
2462.77681	0.19139
2460.84824	0.19223
2458.91968	0.19309
2456.99111	0.19397
2455.06255	0.19486
2453.13398	0.19576
2451.20542	0.19671
2449.27686	0.19775
2447.34829	0.19882
2445.41973	0.19980
2443.49116	0.20066
2441.56260	0.20144
2439.63403	0.20228
2437.70547	0.20331
2435.77690	0.20445
2433.84834	0.20552
2431.91978	0.20650
2429.99121	0.20752
2428.06265	0.20863
2426.13408	0.20982
2424.20552	0.21096
2422.27695	0.21199
2420.34839	0.21302
2418.41982	0.21424
2416.49126	0.21556
2414.56270	0.21688
2412.63413	0.21815
2410.70557	0.21923
2408.77700	0.22014
2406.84844	0.22117
2404.91987	0.22238
2402.99131	0.22352
2401.06274	0.22446
2399.13418	0.22550
2397.20562	0.22686
2395.27705	0.22839
2393.34849	0.22981
2391.41992	0.23106
2389.49136	0.23228
2387.56279	0.23352
2385.63423	0.23477
2383.70566	0.23613
2381.77710	0.23769
2379.84854	0.23946
2377.91997	0.24133
2375.99141	0.24309
2374.06284	0.24501
2372.13428	0.24766
2370.20571	0.25068
2368.27715	0.25298
2366.34858	0.25440
2364.42002	0.25532
2362.49146	0.25624
2360.56289	0.25778
2358.63433	0.26010
2356.70576	0.26265
2354.77720	0.26444
2352.84863	0.26561
2350.92007	0.26616
2348.99150	0.26626
2347.06294	0.26668
2345.13437	0.26828
2343.20581	0.27096
2341.27725	0.27333
2339.34868	0.27504
2337.42012	0.27693
2335.49155	0.27932
2333.56299	0.28115
2331.63442	0.28204
2329.70586	0.28290
2327.77729	0.28450
2325.84873	0.28656
2323.92017	0.28831
2321.99160	0.28945
2320.06304	0.29055
2318.13447	0.29207
2316.20591	0.29377
2314.27734	0.29537
2312.34878	0.29686
2310.42021	0.29826
2308.49165	0.29962
2306.56309	0.30115
2304.63452	0.30266
2302.70596	0.30398
2300.77739	0.30558
2298.84883	0.30754
2296.92026	0.30947
2294.99170	0.31120
2293.06313	0.31291
2291.13457	0.31473
2289.20601	0.31646
2287.27744	0.31802
2285.34888	0.31978
2283.42031	0.32185
2281.49175	0.32395
2279.56318	0.32596
2277.63462	0.32791
2275.70605	0.32990
2273.77749	0.33204
2271.84893	0.33434
2269.92036	0.33654
2267.99180	0.33855
2266.06323	0.34057
2264.13467	0.34273
2262.20610	0.34493
2260.27754	0.34707
2258.34897	0.34921
2256.42041	0.35130
2254.49185	0.35327
2252.56328	0.35533
2250.63472	0.35755
2248.70615	0.35972
2246.77759	0.36189
2244.84902	0.36418
2242.92046	0.36649
2240.99189	0.36866
2239.06333	0.37085
2237.13477	0.37318
2235.20620	0.37540
2233.27764	0.37746
2231.34907	0.37960
2229.42051	0.38194
2227.49194	0.38442
2225.56338	0.38682
2223.63481	0.38905
2221.70625	0.39125
2219.77769	0.39346
2217.84912	0.39563
2215.92056	0.39782
2213.99199	0.40002
2212.06343	0.40213
2210.13486	0.40416
2208.20630	0.40619
2206.27773	0.40822
2204.34917	0.41026
2202.42061	0.41233
2200.49204	0.41443
2198.56348	0.41650
2196.63491	0.41852
2194.70635	0.42052
2192.77778	0.42247
2190.84922	0.42436
2188.92065	0.42619
2186.99209	0.42800
2185.06353	0.42979
2183.13496	0.43157
2181.20640	0.43334
2179.27783	0.43504
2177.34927	0.43662
2175.42070	0.43814
2173.49214	0.43965
2171.56357	0.44117
2169.63501	0.44263
2167.70645	0.44383
2165.77788	0.44495
2163.84932	0.44628
2161.92075	0.44763
2159.99219	0.44883
2158.06362	0.44992
2156.13506	0.45077
2154.20649	0.45152
2152.27793	0.45239
2150.34937	0.45323
2148.42080	0.45388
2146.49224	0.45440
2144.56367	0.45483
2142.63511	0.45523
2140.70654	0.45566
2138.77798	0.45604
2136.84941	0.45628
2134.92085	0.45647
2132.99229	0.45658
2131.06372	0.45655
2129.13516	0.45652
2127.20659	0.45642
2125.27803	0.45610
2123.34946	0.45567
2121.42090	0.45523
2119.49233	0.45468
2117.56377	0.45396
2115.63521	0.45307
2113.70664	0.45218
2111.77808	0.45145
2109.84951	0.45071
2107.92095	0.44969
2105.99238	0.44856
2104.06382	0.44746
2102.13525	0.44617
2100.20669	0.44476
2098.27812	0.44341
2096.34956	0.44205
2094.42100	0.44059
2092.49243	0.43901
2090.56387	0.43734
2088.63530	0.43558
2086.70674	0.43385
2084.77817	0.43212
2082.84961	0.43022
2080.92104	0.42820
2078.99248	0.42615
2077.06392	0.42404
2075.13535	0.42187
2073.20679	0.41965
2071.27822	0.41737
2069.34966	0.41515
2067.42109	0.41297
2065.49253	0.41076
2063.56396	0.40844
2061.63540	0.40602
2059.70684	0.40355
2057.77827	0.40105
2055.84971	0.39845
2053.92114	0.39578
2051.99258	0.39308
2050.06401	0.39037
2048.13545	0.38771
2046.20688	0.38512
2044.27832	0.38258
2042.34976	0.37999
2040.42119	0.37720
2038.49263	0.37431
2036.56406	0.37154
2034.63550	0.36886
2032.70693	0.36612
2030.77837	0.36335
2028.84980	0.36058
2026.92124	0.35785
2024.99268	0.35513
2023.06411	0.35239
2021.13555	0.34966
2019.20698	0.34687
2017.27842	0.34408
2015.34985	0.34133
2013.42129	0.33854
2011.49272	0.33569
2009.56416	0.33284
2007.63560	0.33008
2005.70703	0.32748
2003.77847	0.32487
2001.84990	0.32213
1999.92134	0.31940
1997.99277	0.31679
1996.06421	0.31420
1994.13564	0.31171
1992.20708	0.30935
1990.27852	0.30694
1988.34995	0.30441
1986.42139	0.30181
1984.49282	0.29924
1982.56426	0.29683
1980.63569	0.29454
1978.70713	0.29230
1976.77856	0.29001
1974.85000	0.28775
1972.92144	0.28562
1970.99287	0.28353
1969.06431	0.28137
1967.13574	0.27929
1965.20718	0.27725
1963.27861	0.27515
1961.35005	0.27306
1959.42148	0.27105
1957.49292	0.26915
1955.56436	0.26736
1953.63579	0.26567
1951.70723	0.26402
1949.77866	0.26235
1947.85010	0.26066
1945.92153	0.25908
1943.99297	0.25769
1942.06440	0.25628
1940.13584	0.25464
1938.20728	0.25300
1936.27871	0.25160
1934.35015	0.25036
1932.42158	0.24919
1930.49302	0.24801
1928.56445	0.24681
1926.63589	0.24565
1924.70732	0.24467
1922.77876	0.24383
1920.85020	0.24284
1918.92163	0.24180
1916.99307	0.24085
1915.06450	0.23993
1913.13594	0.23909
1911.20737	0.23842
1909.27881	0.23776
1907.35024	0.23701
1905.42168	0.23628
1903.49312	0.23562
1901.56455	0.23502
1899.63599	0.23457
1897.70742	0.23422
1895.77886	0.23386
1893.85029	0.23343
1891.92173	0.23292
1889.99316	0.23260
1888.06460	0.23239
1886.13604	0.23203
1884.20747	0.23163
1882.27891	0.23141
1880.35034	0.23134
1878.42178	0.23134
1876.49321	0.23142
1874.56465	0.23147
1872.63608	0.23146
1870.70752	0.23156
1868.77896	0.23207
1866.85039	0.23248
1864.92183	0.23239
1862.99326	0.23234
1861.06470	0.23253
1859.13613	0.23289
1857.20757	0.23325
1855.27900	0.23360
1853.35044	0.23393
1851.42187	0.23445
1849.49331	0.23514
1847.56475	0.23594
1845.63618	0.23686
1843.70762	0.23798
1841.77905	0.23885
1839.85049	0.23931
1837.92192	0.24000
1835.99336	0.24087
1834.06479	0.24174
1832.13623	0.24269
1830.20767	0.24412
1828.27910	0.24568
1826.35054	0.24682
1824.42197	0.24813
1822.49341	0.24936
1820.56484	0.25040
1818.63628	0.25162
1816.70771	0.25317
1814.77915	0.25477
1812.85059	0.25655
1810.92202	0.25866
1808.99346	0.26083
1807.06489	0.26281
1805.13633	0.26467
1803.20776	0.26681
1801.27920	0.26941
1799.35063	0.27234
1797.42207	0.27484
1795.49351	0.27710
1793.56494	0.27980
1791.63638	0.28346
1789.70781	0.28701
1787.77925	0.28961
1785.85068	0.29265
1783.92212	0.29632
1781.99355	0.30033
1780.06499	0.30455
1778.13643	0.30872
1776.20786	0.31251
1774.27930	0.31668
1772.35073	0.32276
1770.42217	0.32942
1768.49360	0.33459
1766.56504	0.33953
1764.63647	0.34473
1762.70791	0.35054
1760.77935	0.35800
1758.85078	0.36494
1756.92222	0.37188
1754.99365	0.37945
1753.06509	0.38611
1751.13652	0.39406
1749.20796	0.40452
1747.27939	0.41484
1745.35083	0.42364
1743.42227	0.43296
1741.49370	0.44343
1739.56514	0.45588
1737.63657	0.46822
1735.70801	0.47870
1733.77944	0.49489
1731.85088	0.51498
1729.92231	0.53063
1727.99375	0.54639
1726.06519	0.56336
1724.13662	0.58189
1722.20806	0.60179
1720.27949	0.61983
1718.35093	0.64106
1716.42236	0.67393
1714.49380	0.70550
1712.56523	0.73022
1710.63667	0.75373
1708.70811	0.77890
1706.77954	0.80787
1704.85098	0.84334
1702.92241	0.87484
1700.99385	0.90512
1699.06528	0.95169
1697.13672	0.99575
1695.20815	1.04131
1693.27959	1.08538
1691.35103	1.12044
1689.42246	1.16136
1687.49390	1.20493
1685.56533	1.24623
1683.63677	1.31259
1681.70820	1.38433
1679.77964	1.42856
1677.85107	1.46998
1675.92251	1.51774
1673.99395	1.57787
1672.06538	1.63146
1670.13682	1.68458
1668.20825	1.75764
1666.27969	1.81674
1664.35112	1.86519
1662.42256	1.92871
1660.49399	2.00596
1658.56543	2.06575
1656.63687	2.11182
1654.70830	2.15112
1652.77974	2.20971
1650.85117	2.26932
1648.92261	2.29150
1646.99404	2.31939
1645.06548	2.34595
1643.13691	2.36188
1641.20835	2.36848
1639.27979	2.37603
1637.35122	2.38152
1635.42266	2.37997
1633.49409	2.36953
1631.56553	2.35244
1629.63696	2.33343
1627.70840	2.30332
1625.77983	2.26873
1623.85127	2.22263
1621.92271	2.16562
1619.99414	2.11677
1618.06558	2.06975
1616.13701	2.00187
1614.20845	1.93443
1612.27988	1.88468
1610.35132	1.83191
1608.42275	1.77383
1606.49419	1.71731
1604.56562	1.66620
1602.63706	1.61590
1600.70850	1.56642
1598.77993	1.52202
1596.85137	1.48085
1594.92280	1.44033
1592.99424	1.40100
1591.06567	1.36574
1589.13711	1.33372
1587.20854	1.30457
1585.27998	1.27761
1583.35142	1.25251
1581.42285	1.23027
1579.49429	1.21187
1577.56572	1.19593
1575.63716	1.17733
1573.70859	1.16169
1571.78003	1.15206
1569.85146	1.14290
1567.92290	1.13358
1565.99434	1.12777
1564.06577	1.12464
1562.13721	1.12247
1560.20864	1.12223
1558.28008	1.13015
1556.35151	1.14103
1554.42295	1.14625
1552.49438	1.15084
1550.56582	1.15358
1548.63726	1.15301
1546.70869	1.14892
1544.78013	1.14135
1542.85156	1.12989
1540.92300	1.10946
1538.99443	1.07472
1537.06587	1.05027
1535.13730	1.03364
1533.20874	1.01050
1531.28018	0.98583
1529.35161	0.96824
1527.42305	0.95192
1525.49448	0.93542
1523.56592	0.92129
1521.63735	0.90707
1519.70879	0.89301
1517.78022	0.88200
1515.85166	0.86880
1513.92310	0.85448
1511.99453	0.84183
1510.06597	0.83036
1508.13740	0.81944
1506.20884	0.80199
1504.28027	0.78683
1502.35171	0.77873
1500.42314	0.77211
1498.49458	0.76507
1496.56602	0.75610
1494.63745	0.74678
1492.70889	0.73983
1490.78032	0.73398
1488.85176	0.72732
1486.92319	0.72120
1484.99463	0.71664
1483.06606	0.71322
1481.13750	0.71035
1479.20894	0.70813
1477.28037	0.70709
1475.35181	0.70705
1473.42324	0.70727
1471.49468	0.70668
1469.56611	0.70507
1467.63755	0.70311
1465.70898	0.70142
1463.78042	0.70037
1461.85186	0.69983
1459.92329	0.69975
1457.99473	0.70044
1456.06616	0.70088
1454.13760	0.69903
1452.20903	0.69643
1450.28047	0.69371
1448.35190	0.69091
1446.42334	0.68801
1444.49478	0.68530
1442.56621	0.68264
1440.63765	0.67960
1438.70908	0.67627
1436.78052	0.67245
1434.85195	0.66843
1432.92339	0.66528
1430.99482	0.66321
1429.06626	0.66226
1427.13770	0.66225
1425.20913	0.66308
1423.28057	0.66466
1421.35200	0.66598
1419.42344	0.66685
1417.49487	0.66734
1415.56631	0.66685
1413.63774	0.66632
1411.70918	0.66651
1409.78062	0.66777
1407.85205	0.66986
1405.92349	0.67230
1403.99492	0.67458
1402.06636	0.67570
1400.13779	0.67560
1398.20923	0.67438
1396.28066	0.67162
1394.35210	0.66720
1392.42354	0.66212
1390.49497	0.65728
1388.56641	0.65208
1386.63784	0.64582
1384.70928	0.63928
1382.78071	0.63320
1380.85215	0.62756
1378.92358	0.62280
1376.99502	0.61932
1375.06646	0.61704
1373.13789	0.61557
1371.20933	0.61457
1369.28076	0.61374
1367.35220	0.61264
1365.42363	0.61116
1363.49507	0.60948
1361.56650	0.60767
1359.63794	0.60603
1357.70937	0.60468
1355.78081	0.60344
1353.85225	0.60232
1351.92368	0.60150
1349.99512	0.60094
1348.06655	0.60030
1346.13799	0.59943
1344.20942	0.59854
1342.28086	0.59797
1340.35229	0.59776
1338.42373	0.59747
1336.49517	0.59686
1334.56660	0.59637
1332.63804	0.59632
1330.70947	0.59672
1328.78091	0.59748
1326.85234	0.59849
1324.92378	0.59968
1322.99521	0.60085
1321.06665	0.60187
1319.13809	0.60284
1317.20952	0.60364
1315.28096	0.60396
1313.35239	0.60381
1311.42383	0.60342
1309.49526	0.60293
1307.56670	0.60240
1305.63813	0.60191
1303.70957	0.60144
1301.78101	0.60080
1299.85244	0.59989
1297.92388	0.59883
1295.99531	0.59757
1294.06675	0.59607
1292.13818	0.59449
1290.20962	0.59297
1288.28105	0.59159
1286.35249	0.59034
1284.42393	0.58906
1282.49536	0.58754
1280.56680	0.58583
1278.63823	0.58410
1276.70967	0.58253
1274.78110	0.58120
1272.85254	0.58010
1270.92397	0.57920
1268.99541	0.57832
1267.06685	0.57741
1265.13828	0.57654
1263.20972	0.57562
1261.28115	0.57461
1259.35259	0.57366
1257.42402	0.57288
1255.49546	0.57252
1253.56689	0.57264
1251.63833	0.57296
1249.70977	0.57315
1247.78120	0.57316
1245.85264	0.57317
1243.92407	0.57302
1241.99551	0.57227
1240.06694	0.57074
1238.13838	0.56859
1236.20981	0.56601
1234.28125	0.56330
1232.35269	0.56068
1230.42412	0.55820
1228.49556	0.55590
1226.56699	0.55378
1224.63843	0.55175
1222.70986	0.54987
1220.78130	0.54816
1218.85273	0.54644
1216.92417	0.54489
1214.99561	0.54368
1213.06704	0.54268
1211.13848	0.54179
1209.20991	0.54104
1207.28135	0.54043
1205.35278	0.53976
1203.42422	0.53883
1201.49565	0.53770
1199.56709	0.53663
1197.63853	0.53577
1195.70996	0.53511
1193.78140	0.53455
1191.85283	0.53404
1189.92427	0.53354
1187.99570	0.53309
1186.06714	0.53290
1184.13857	0.53313
1182.21001	0.53375
1180.28145	0.53484
1178.35288	0.53636
1176.42432	0.53792
1174.49575	0.53918
1172.56719	0.54000
1170.63862	0.54017
1168.71006	0.53976
1166.78149	0.53917
1164.85293	0.53872
1162.92437	0.53841
1160.99580	0.53788
1159.06724	0.53694
1157.13867	0.53581
1155.21011	0.53461
1153.28154	0.53316
1151.35298	0.53130
1149.42441	0.52907
1147.49585	0.52651
1145.56729	0.52369
1143.63872	0.52102
1141.71016	0.51879
1139.78159	0.51697
1137.85303	0.51554
1135.92446	0.51462
1133.99590	0.51416
1132.06733	0.51394
1130.13877	0.51373
1128.21021	0.51335
1126.28164	0.51272
1124.35308	0.51189
1122.42451	0.51098
1120.49595	0.51028
1118.56738	0.51001
1116.63882	0.51006
1114.71025	0.51010
1112.78169	0.51018
1110.85312	0.51056
1108.92456	0.51125
1106.99600	0.51213
1105.06743	0.51312
1103.13887	0.51442
1101.21030	0.51622
1099.28174	0.51836
1097.35317	0.52073
1095.42461	0.52350
1093.49604	0.52691
1091.56748	0.53099
1089.63892	0.53555
1087.71035	0.54082
1085.78179	0.54706
1083.85322	0.55378
1081.92466	0.56006
1079.99609	0.56506
1078.06753	0.56808
1076.13896	0.56850
1074.21040	0.56612
1072.28184	0.56135
1070.35327	0.55513
1068.42471	0.54847
1066.49614	0.54183
1064.56758	0.53537
1062.63901	0.52953
1060.71045	0.52453
1058.78188	0.52009
1056.85332	0.51592
1054.92476	0.51228
1052.99619	0.50929
1051.06763	0.50656
1049.13906	0.50392
1047.21050	0.50168
1045.28193	0.50001
1043.35337	0.49866
1041.42480	0.49734
1039.49624	0.49620
1037.56768	0.49532
1035.63911	0.49462
1033.71055	0.49407
1031.78198	0.49361
1029.85342	0.49303
1027.92485	0.49241
1025.99629	0.49187
1024.06772	0.49142
1022.13916	0.49128
1020.21060	0.49175
1018.28203	0.49255
1016.35347	0.49316
1014.42490	0.49356
1012.49634	0.49415
1010.56777	0.49505
1008.63921	0.49608
1006.71064	0.49722
1004.78208	0.49878
1002.85352	0.50093
1000.92495	0.50355
998.99639	0.50683
997.06782	0.51086
995.13926	0.51510
993.21069	0.51906
991.28213	0.52252
989.35356	0.52505
987.42500	0.52634
985.49644	0.52689
983.56787	0.52744
981.63931	0.52824
979.71074	0.52926
977.78218	0.53060
975.85361	0.53260
973.92505	0.53522
971.99648	0.53811
970.06792	0.54127
968.13936	0.54484
966.21079	0.54882
964.28223	0.55329
962.35366	0.55814
960.42510	0.56296
958.49653	0.56792
956.56797	0.57347
954.63940	0.57941
952.71084	0.58556
950.78228	0.59195
948.85371	0.59839
946.92515	0.60470
944.99658	0.61083
943.06802	0.61665
941.13945	0.62236
939.21089	0.62848
937.28232	0.63477
935.35376	0.64068
933.42520	0.64646
931.49663	0.65214
929.56807	0.65729
927.63950	0.66224
925.71094	0.66759
923.78237	0.67347
921.85381	0.67989
919.92524	0.68683
917.99668	0.69394
916.06812	0.70109
914.13955	0.70861
912.21099	0.71670
910.28242	0.72504
908.35386	0.73340
906.42529	0.74172
904.49673	0.75039
902.56816	0.75961
900.63960	0.76889
898.71104	0.77821
896.78247	0.78789
894.85391	0.79740
892.92534	0.80664
890.99678	0.81602
889.06821	0.82567
887.13965	0.83638
885.21108	0.84827
883.28252	0.85988
881.35396	0.87034
879.42539	0.88043
877.49683	0.89122
875.56826	0.90227
873.63970	0.91344
871.71113	0.92574
869.78257	0.93821
867.85400	0.94990
865.92544	0.96155
863.99687	0.97314
862.06831	0.98487
860.13975	0.99707
858.21118	1.00858
856.28262	1.01907
854.35405	1.03099
852.42549	1.04514
850.49692	1.05834
848.56836	1.06990
846.63979	1.08231
844.71123	1.09489
842.78267	1.10528
840.85410	1.11395
838.92554	1.12358
836.99697	1.13504
835.06841	1.14552
833.13984	1.15463
831.21128	1.16481
829.28271	1.17697
827.35415	1.19051
825.42559	1.19974
823.49702	1.20392
821.56846	1.21212
819.63989	1.22456
817.71133	1.23343
815.78276	1.23631
813.85420	1.23649
811.92563	1.24817
809.99707	1.27938
808.06851	1.30118
806.13994	1.28890
804.21138	1.27326
802.28281	1.28747
800.35425	1.31757
798.42568	1.31757
796.49712	1.29115
794.56855	1.28844
792.63999	1.31574
790.71143	1.32542
788.78286	1.30308
786.85430	1.30063
784.92573	1.32096
782.99717	1.32399
781.06860	1.28683
779.14004	1.22152
777.21147	1.17841
775.28291	1.16762
773.35435	1.13883
771.42578	1.07746
769.49722	1.05359
767.56865	1.06608
765.64009	1.06156
763.71152	1.01872
761.78296	0.97374
759.85439	0.94664
757.92583	0.94291
755.99727	0.93654
754.06870	0.89310
752.14014	0.82144
750.21157	0.74641
748.28301	0.69607
746.35444	0.67478
744.42588	0.66550
742.49731	0.64705
740.56875	0.59314
738.64019	0.52551
736.71162	0.46255
734.78306	0.37208
732.85449	0.24968
730.92593	0.11324
728.99736	-0.00414
727.06880	-0.06671
725.14023	-0.15228
723.21167	-0.31519
721.28311	-0.54136
719.35454	-0.40151
717.42598	-0.24908
715.49741	-0.19918
713.56885	-0.17537
711.64028	-0.17232
709.71172	-0.17012
707.78315	-0.14695
705.85459	-0.08494
703.92603	-0.03060
701.99746	-0.02235
700.06890	-0.02210
698.14033	0.00322
696.21177	0.01892
694.28320	0.01966
692.35464	0.04239
690.42607	0.07286
688.49751	0.06511
686.56895	0.02380
684.64038	-0.01293
682.71182	0.00687
680.78325	0.07185
678.85469	0.10449
676.92612	0.08957
674.99756	0.06612
673.06899	0.03986
671.14043	0.02397
669.21187	0.04027
667.28330	0.04585
665.35474	0.01358
663.42617	-0.01209
661.49761	-0.01187
659.56904	-0.00872
657.64048	-0.01359
655.71191	-0.01934
653.78335	0.00118
651.85479	0.04624
649.92622	0.06367
647.99766	0.03729
646.06909	0.02190
644.14053	0.04895
642.21196	0.07168
640.28340	0.06070
638.35483	0.04575
636.42627	0.02083
634.49771	-0.01695
632.56914	-0.04199
630.64058	-0.04210
628.71201	-0.03370
626.78345	-0.03250
624.85488	-0.02690
622.92632	-0.00710
620.99775	0.00241
619.06919	-0.00321
617.14062	0.00142
615.21206	0.00955
613.28350	0.00634
611.35493	-0.00808
609.42637	-0.00432
607.49780	0.03782
605.56924	0.06960
603.64067	0.07156
601.71211	0.08389
599.78354	0.10050
597.85498	0.07721
595.92642	0.03603
593.99785	0.03394
592.06929	0.06512
590.14072	0.06628
588.21216	0.02779
586.28359	-0.00304
584.35503	-0.00633
582.42646	0.01517
580.49790	0.03788
578.56934	0.03698
576.64077	0.02442
574.71221	0.02561
572.78364	0.03929
570.85508	0.03752
568.92651	0.01912
566.99795	0.00921
565.06938	0.01150
563.14082	0.01522
561.21226	0.02425
559.28369	0.02921
557.35513	0.02381
555.42656	0.03916
553.49800	0.07201
551.56943	0.07789
549.64087	0.05570
547.71230	0.03617
545.78374	0.03309
543.85518	0.04840
541.92661	0.05982
539.99805	0.04546
538.06948	0.03378
536.14092	0.04032
534.21235	0.04266
532.28379	0.03394
530.35522	0.03987
528.42666	0.05118
526.49810	0.04428
524.56953	0.04355
522.64097	0.05852
520.71240	0.05873
518.78384	0.03104
516.85527	0.00236
514.92671	-0.00161
512.99814	0.00204
511.06958	-0.00036
509.14102	0.02715
507.21245	0.08420
505.28389	0.10556
503.35532	0.08633
501.42676	0.06518
499.49819	0.05442
