3997.91411	0.07222
3995.98555	0.07262
3994.05698	0.07301
3992.12842	0.07309
3990.19985	0.07284
3988.27129	0.07268
3986.34272	0.07304
3984.41416	0.07369
3982.48560	0.07416
3980.55703	0.07438
3978.62847	0.07442
3976.69990	0.07473
3974.77134	0.07536
3972.84277	0.07577
3970.91421	0.07584
3968.98564	0.07597
3967.05708	0.07616
3965.12852	0.07587
3963.19995	0.07559
3961.27139	0.07602
3959.34282	0.07666
3957.41426	0.07685
3955.48569	0.07687
3953.55713	0.07694
3951.62856	0.07686
3949.70000	0.07669
3947.77144	0.07670
3945.84287	0.07683
3943.91431	0.07673
3941.98574	0.07649
3940.05718	0.07651
3938.12861	0.07677
3936.20005	0.07686
3934.27148	0.07678
3932.34292	0.07685
3930.41436	0.07700
3928.48579	0.07685
3926.55723	0.07628
3924.62866	0.07570
3922.70010	0.07563
3920.77153	0.07582
3918.84297	0.07586
3916.91440	0.07600
3914.98584	0.07627
3913.05728	0.07613
3911.12871	0.07562
3909.20015	0.07520
3907.27158	0.07524
3905.34302	0.07577
3903.41445	0.07680
3901.48589	0.07781
3899.55732	0.07796
3897.62876	0.07750
3895.70020	0.07689
3893.77163	0.07640
3891.84307	0.07625
3889.91450	0.07617
3887.98594	0.07597
3886.05737	0.07620
3884.12881	0.07662
3882.20024	0.07652
3880.27168	0.07664
3878.34312	0.07709
3876.41455	0.07726
3874.48599	0.07769
3872.55742	0.07824
3870.62886	0.07841
3868.70029	0.07907
3866.77173	0.07956
3864.84316	0.07912
3862.91460	0.07858
3860.98604	0.07832
3859.05747	0.07842
3857.12891	0.07880
3855.20034	0.07903
3853.27178	0.07947
3851.34321	0.08100
3849.41465	0.08187
3847.48608	0.08198
3845.55752	0.08221
3843.62896	0.08277
3841.70039	0.08365
3839.77183	0.08517
3837.84326	0.08690
3835.91470	0.08705
3833.98613	0.08623
3832.05757	0.08627
3830.12900	0.08706
3828.20044	0.08759
3826.27187	0.08809
3824.34331	0.08906
3822.41475	0.09030
3820.48618	0.09182
3818.55762	0.09279
3816.62905	0.09322
3814.70049	0.09410
3812.77192	0.09483
3810.84336	0.09532
3808.91479	0.09624
3806.98623	0.09760
3805.05767	0.09880
3803.12910	0.09964
3801.20054	0.10089
3799.27197	0.10262
3797.34341	0.10412
3795.41484	0.10536
3793.48628	0.10608
3791.55771	0.10690
3789.62915	0.10819
3787.70059	0.10946
3785.77202	0.11075
3783.84346	0.11211
3781.91489	0.11317
3779.98633	0.11448
3778.05776	0.11664
3776.12920	0.11850
3774.20063	0.11966
3772.27207	0.12103
3770.34351	0.12308
3768.41494	0.12549
3766.48638	0.12729
3764.55781	0.12875
3762.62925	0.13024
3760.70068	0.13236
3758.77212	0.13578
3756.84355	0.13916
3754.91499	0.14112
3752.98643	0.14265
3751.05786	0.14531
3749.12930	0.14957
3747.20073	0.15269
3745.27217	0.15513
3743.34360	0.15929
3741.41504	0.16352
3739.48647	0.16643
3737.55791	0.16959
3735.62935	0.17438
3733.70078	0.18076
3731.77222	0.18653
3729.84365	0.19129
3727.91509	0.19591
3725.98652	0.20165
3724.05796	0.20833
3722.12939	0.21466
3720.20083	0.22112
3718.27227	0.22793
3716.34370	0.23488
3714.41514	0.24191
3712.48657	0.25035
3710.55801	0.26325
3708.62944	0.27870
3706.70088	0.29147
3704.77231	0.30297
3702.84375	0.31614
3700.91519	0.33333
3698.98662	0.35229
3697.05806	0.36999
3695.12949	0.38845
3693.20093	0.40804
3691.27236	0.42929
3689.34380	0.45749
3687.41523	0.49328
3685.48667	0.52425
3683.55811	0.55023
3681.62954	0.57778
3679.70098	0.60878
3677.77241	0.64125
3675.84385	0.68011
3673.91528	0.73498
3671.98672	0.77973
3670.05815	0.81854
3668.12959	0.87298
3666.20103	0.92228
3664.27246	0.96288
3662.34390	1.00651
3660.41533	1.05353
3658.48677	1.09945
3656.55820	1.14841
3654.62964	1.20386
3652.70107	1.24981
3650.77251	1.28844
3648.84395	1.34328
3646.91538	1.41383
3644.98682	1.46569
3643.05825	1.50556
3641.12969	1.54627
3639.20112	1.59079
3637.27256	1.63544
3635.34399	1.67878
3633.41543	1.72178
3631.48687	1.76189
3629.55830	1.80293
3627.62974	1.85843
3625.70117	1.91009
3623.77261	1.94371
3621.84404	1.97555
3619.91548	2.01229
3617.98691	2.05756
3616.05835	2.10094
3614.12979	2.13736
3612.20122	2.17725
3610.27266	2.21703
3608.34409	2.25673
3606.41553	2.30094
3604.48696	2.34230
3602.55840	2.37831
3600.62983	2.41655
3598.70127	2.45666
3596.77271	2.49511
3594.84414	2.53573
3592.91558	2.57798
3590.98701	2.61567
3589.05845	2.65017
3587.12988	2.69381
3585.20132	2.74304
3583.27275	2.78316
3581.34419	2.82020
3579.41562	2.86119
3577.48706	2.90375
3575.55850	2.94447
3573.62993	2.98676
3571.70137	3.03022
3569.77280	3.07084
3567.84424	3.11170
3565.91567	3.16408
3563.98711	3.21703
3562.05854	3.25789
3560.12998	3.29708
3558.20142	3.33919
3556.27285	3.38213
3554.34429	3.42550
3552.41572	3.47326
3550.48716	3.52268
3548.55859	3.56797
3546.63003	3.61198
3544.70146	3.65987
3542.77290	3.70774
3540.84434	3.75276
3538.91577	3.79855
3536.98721	3.84613
3535.05864	3.89581
3533.13008	3.94281
3531.20151	3.98764
3529.27295	4.03644
3527.34438	4.08870
3525.41582	4.13550
3523.48726	4.17681
3521.55869	4.22392
3519.63013	4.27498
3517.70156	4.32114
3515.77300	4.36229
3513.84443	4.40446
3511.91587	4.45118
3509.98730	4.50438
3508.05874	4.55883
3506.13018	4.60833
3504.20161	4.66043
3502.27305	4.71606
3500.34448	4.76341
3498.41592	4.80141
3496.48735	4.84335
3494.55879	4.89824
3492.63022	4.95523
3490.70166	5.00072
3488.77310	5.04282
3486.84453	5.08929
3484.91597	5.13557
3482.98740	5.18619
3481.05884	5.24127
3479.13027	5.28815
3477.20171	5.32880
3475.27314	5.37425
3473.34458	5.43183
3471.41602	5.49407
3469.48745	5.54153
3467.55889	5.57800
3465.63032	5.62130
3463.70176	5.67260
3461.77319	5.72156
3459.84463	5.76687
3457.91606	5.81302
3455.98750	5.86187
3454.05894	5.91429
3452.13037	5.97543
3450.20181	6.03338
3448.27324	6.07055
3446.34468	6.10437
3444.41611	6.15051
3442.48755	6.21378
3440.55898	6.27879
3438.63042	6.31962
3436.70186	6.34427
3434.77329	6.37210
3432.84473	6.41623
3430.91616	6.47385
3428.98760	6.53070
3427.05903	6.58336
3425.13047	6.63943
3423.20190	6.70042
3421.27334	6.76313
3419.34478	6.80076
3417.41621	6.81871
3415.48765	6.84474
3413.55908	6.87385
3411.63052	6.92144
3409.70195	6.98006
3407.77339	7.03044
3405.84482	7.08517
3403.91626	7.14863
3401.98770	7.19692
3400.05913	7.24059
3398.13057	7.28957
3396.20200	7.33292
3394.27344	7.38960
3392.34487	7.43034
3390.41631	7.45315
3388.48774	7.49789
3386.55918	7.57666
3384.63062	7.66344
3382.70205	7.69666
3380.77349	7.64853
3378.84492	7.58714
3376.91636	7.58772
3374.98779	7.62993
3373.05923	7.69550
3371.13066	7.77122
3369.20210	7.80655
3367.27354	7.79021
3365.34497	7.80299
3363.41641	7.85070
3361.48784	7.86497
3359.55928	7.86625
3357.63071	7.87922
3355.70215	7.91143
3353.77358	7.95712
3351.84502	7.98595
3349.91646	7.95839
3347.98789	7.93827
3346.05933	8.00351
3344.13076	8.09105
3342.20220	8.06976
3340.27363	7.98460
3338.34507	8.00946
3336.41650	8.11979
3334.48794	8.19121
3332.55937	8.19466
3330.63081	8.18147
3328.70225	8.14541
3326.77368	8.10617
3324.84512	8.11381
3322.91655	8.10012
3320.98799	8.06518
3319.05942	8.03070
3317.13086	7.95741
3315.20229	7.89976
3313.27373	8.00116
3311.34517	8.23207
3309.41660	8.32155
3307.48804	8.17280
3305.55947	8.00309
3303.63091	7.92769
3301.70234	7.90848
3299.77378	7.95710
3297.84521	8.03743
3295.91665	8.06968
3293.98809	8.06821
3292.05952	8.02527
3290.13096	7.94919
3288.20239	7.96548
3286.27383	8.07350
3284.34526	8.13721
3282.41670	8.17855
3280.48813	8.18355
3278.55957	8.14254
3276.63101	8.17076
3274.70244	8.26808
3272.77388	8.33618
3270.84531	8.35143
3268.91675	8.30302
3266.98818	8.16035
3265.05962	8.01855
3263.13105	7.96874
3261.20249	8.02662
3259.27393	8.13111
3257.34536	8.18620
3255.41680	8.17825
3253.48823	8.21351
3251.55967	8.29537
3249.63110	8.26077
3247.70254	8.17367
3245.77397	8.19137
3243.84541	8.29269
3241.91685	8.37313
3239.98828	8.36601
3238.05972	8.29006
3236.13115	8.22202
3234.20259	8.16786
3232.27402	8.10019
3230.34546	8.05515
3228.41689	8.05202
3226.48833	8.02377
3224.55977	7.90650
3222.63120	7.83078
3220.70264	7.90052
3218.77407	8.02215
3216.84551	8.06268
3214.91694	8.02513
3212.98838	7.94388
3211.05981	7.80632
3209.13125	7.70670
3207.20269	7.72265
3205.27412	7.78860
3203.34556	7.83900
3201.41699	7.89809
3199.48843	7.93194
3197.55986	7.83712
3195.63130	7.69587
3193.70273	7.62663
3191.77417	7.61257
3189.84561	7.58587
3187.91704	7.48450
3185.98848	7.37079
3184.05991	7.32067
3182.13135	7.29574
3180.20278	7.25020
3178.27422	7.17230
3176.34565	7.08781
3174.41709	7.02982
3172.48853	6.98576
3170.55996	6.93136
3168.63140	6.87283
3166.70283	6.81620
3164.77427	6.75707
3162.84570	6.70930
3160.91714	6.66552
3158.98857	6.59694
3157.06001	6.50436
3155.13145	6.42384
3153.20288	6.36730
3151.27432	6.30527
3149.34575	6.23088
3147.41719	6.16269
3145.48862	6.10902
3143.56006	6.06398
3141.63149	6.01166
3139.70293	5.94454
3137.77437	5.87298
3135.84580	5.80232
3133.91724	5.73061
3131.98867	5.65465
3130.06011	5.57308
3128.13154	5.49733
3126.20298	5.43560
3124.27441	5.37816
3122.34585	5.31115
3120.41729	5.23783
3118.48872	5.16874
3116.56016	5.10315
3114.63159	5.03614
3112.70303	4.96535
3110.77446	4.88781
3108.84590	4.81070
3106.91733	4.74472
3104.98877	4.68364
3103.06021	4.61976
3101.13164	4.55329
3099.20308	4.48755
3097.27451	4.42618
3095.34595	4.36617
3093.41738	4.30374
3091.48882	4.23993
3089.56025	4.17655
3087.63169	4.11264
3085.70312	4.04900
3083.77456	3.98698
3081.84600	3.92392
3079.91743	3.86082
3077.98887	3.80228
3076.06030	3.74840
3074.13174	3.69388
3072.20317	3.63504
3070.27461	3.57594
3068.34604	3.52016
3066.41748	3.46515
3064.48892	3.41002
3062.56035	3.35542
3060.63179	3.30151
3058.70322	3.24938
3056.77466	3.19806
3054.84609	3.14621
3052.91753	3.09503
3050.98896	3.04487
3049.06040	2.99416
3047.13184	2.94310
3045.20327	2.89391
3043.27471	2.84696
3041.34614	2.79989
3039.41758	2.75263
3037.48901	2.70691
3035.56045	2.66155
3033.63188	2.61646
3031.70332	2.57313
3029.77476	2.53070
3027.84619	2.48841
3025.91763	2.44629
3023.98906	2.40404
3022.06050	2.36243
3020.13193	2.32211
3018.20337	2.28202
3016.27480	2.24203
3014.34624	2.20324
3012.41768	2.16539
3010.48911	2.12788
3008.56055	2.09105
3006.63198	2.05535
3004.70342	2.02069
3002.77485	1.98618
3000.84629	1.95156
2998.91772	1.91781
2996.98916	1.88543
2995.06060	1.85394
2993.13203	1.82301
2991.20347	1.79233
2989.27490	1.76214
2987.34634	1.73304
2985.41777	1.70412
2983.48921	1.67505
2981.56064	1.64698
2979.63208	1.62001
2977.70352	1.59341
2975.77495	1.56738
2973.84639	1.54217
2971.91782	1.51731
2969.98926	1.49300
2968.06069	1.46983
2966.13213	1.44759
2964.20356	1.42527
2962.27500	1.40192
2960.34644	1.37796
2958.41787	1.35448
2956.48931	1.33121
2954.56074	1.30726
2952.63218	1.28337
2950.70361	1.26068
2948.77505	1.23874
2946.84648	1.21702
2944.91792	1.19567
2942.98936	1.17464
2941.06079	1.15420
2939.13223	1.13518
2937.20366	1.11759
2935.27510	1.10013
2933.34653	1.08242
2931.41797	1.06535
2929.48940	1.04838
2927.56084	1.03066
2925.63228	1.01310
2923.70371	0.99619
2921.77515	0.97879
2919.84658	0.96031
2917.91802	0.94136
2915.98945	0.92228
2914.06089	0.90330
2912.13232	0.88516
2910.20376	0.86844
2908.27520	0.85292
2906.34663	0.83752
2904.41807	0.82158
2902.48950	0.80617
2900.56094	0.79211
2898.63237	0.77852
2896.70381	0.76462
2894.77524	0.75093
2892.84668	0.73801
2890.91812	0.72555
2888.98955	0.71353
2887.06099	0.70244
2885.13242	0.69186
2883.20386	0.68111
2881.27529	0.67053
2879.34673	0.66056
2877.41816	0.65115
2875.48960	0.64207
2873.56104	0.63280
2871.63247	0.62280
2869.70391	0.61210
2867.77534	0.60104
2865.84678	0.58993
2863.91821	0.57907
2861.98965	0.56882
2860.06108	0.55949
2858.13252	0.55093
2856.20396	0.54269
2854.27539	0.53435
2852.34683	0.52582
2850.41826	0.51690
2848.48970	0.50728
2846.56113	0.49728
2844.63257	0.48780
2842.70400	0.47932
2840.77544	0.47185
2838.84687	0.46522
2836.91831	0.45882
2834.98975	0.45228
2833.06118	0.44582
2831.13262	0.43965
2829.20405	0.43362
2827.27549	0.42768
2825.34692	0.42182
2823.41836	0.41583
2821.48979	0.40969
2819.56123	0.40355
2817.63267	0.39752
2815.70410	0.39163
2813.77554	0.38602
2811.84697	0.38073
2809.91841	0.37546
2807.98984	0.37015
2806.06128	0.36493
2804.13271	0.35986
2802.20415	0.35483
2800.27559	0.34967
2798.34702	0.34449
2796.41846	0.33948
2794.48989	0.33481
2792.56133	0.33045
2790.63276	0.32614
2788.70420	0.32164
2786.77563	0.31714
2784.84707	0.31287
2782.91851	0.30894
2780.98994	0.30505
2779.06138	0.30090
2777.13281	0.29675
2775.20425	0.29300
2773.27568	0.28940
2771.34712	0.28556
2769.41855	0.28170
2767.48999	0.27817
2765.56143	0.27491
2763.63286	0.27159
2761.70430	0.26812
2759.77573	0.26474
2757.84717	0.26148
2755.91860	0.25835
2753.99004	0.25540
2752.06147	0.25247
2750.13291	0.24952
2748.20435	0.24666
2746.27578	0.24388
2744.34722	0.24108
2742.41865	0.23827
2740.49009	0.23563
2738.56152	0.23309
2736.63296	0.23053
2734.70439	0.22811
2732.77583	0.22578
2730.84727	0.22331
2728.91870	0.22077
2726.99014	0.21835
2725.06157	0.21604
2723.13301	0.21390
2721.20444	0.21200
2719.27588	0.21010
2717.34731	0.20805
2715.41875	0.20604
2713.49019	0.20424
2711.56162	0.20252
2709.63306	0.20071
2707.70449	0.19877
2705.77593	0.19699
2703.84736	0.19554
2701.91880	0.19418
2699.99023	0.19271
2698.06167	0.19118
2696.13311	0.18969
2694.20454	0.18821
2692.27598	0.18682
2690.34741	0.18562
2688.41885	0.18448
2686.49028	0.18321
2684.56172	0.18195
2682.63315	0.18089
2680.70459	0.17986
2678.77603	0.17874
2676.84746	0.17757
2674.91890	0.17636
2672.99033	0.17526
2671.06177	0.17441
2669.13320	0.17347
2667.20464	0.17232
2665.27607	0.17131
2663.34751	0.17052
2661.41895	0.16985
2659.49038	0.16913
2657.56182	0.16826
2655.63325	0.16730
2653.70469	0.16634
2651.77612	0.16541
2649.84756	0.16470
2647.91899	0.16437
2645.99043	0.16406
2644.06187	0.16347
2642.13330	0.16278
2640.20474	0.16227
2638.27617	0.16198
2636.34761	0.16162
2634.41904	0.16097
2632.49048	0.16034
2630.56191	0.16007
2628.63335	0.15989
2626.70479	0.15947
2624.77622	0.15896
2622.84766	0.15858
2620.91909	0.15836
2618.99053	0.15823
2617.06196	0.15813
2615.13340	0.15795
2613.20483	0.15775
2611.27627	0.15762
2609.34771	0.15756
2607.41914	0.15752
2605.49058	0.15743
2603.56201	0.15728
2601.63345	0.15728
2599.70488	0.15742
2597.77632	0.15746
2595.84775	0.15735
2593.91919	0.15727
2591.99062	0.15716
2590.06206	0.15700
2588.13350	0.15701
2586.20493	0.15720
2584.27637	0.15748
2582.34780	0.15785
2580.41924	0.15826
2578.49067	0.15858
2576.56211	0.15884
2574.63354	0.15913
2572.70498	0.15937
2570.77642	0.15960
2568.84785	0.15991
2566.91929	0.16029
2564.99072	0.16074
2563.06216	0.16113
2561.13359	0.16140
2559.20503	0.16173
2557.27646	0.16222
2555.34790	0.16286
2553.41934	0.16352
2551.49077	0.16409
2549.56221	0.16467
2547.63364	0.16523
2545.70508	0.16565
2543.77651	0.16603
2541.84795	0.16658
2539.91938	0.16725
2537.99082	0.16789
2536.06226	0.16855
2534.13369	0.16925
2532.20513	0.16983
2530.27656	0.17036
2528.34800	0.17107
2526.41943	0.17189
2524.49087	0.17267
2522.56230	0.17344
2520.63374	0.17422
2518.70518	0.17497
2516.77661	0.17561
2514.84805	0.17617
2512.91948	0.17686
2510.99092	0.17770
2509.06235	0.17850
2507.13379	0.17929
2505.20522	0.18015
2503.27666	0.18102
2501.34810	0.18182
2499.41953	0.18262
2497.49097	0.18344
2495.56240	0.18421
2493.63384	0.18507
2491.70527	0.18608
2489.77671	0.18695
2487.84814	0.18758
2485.91958	0.18828
2483.99102	0.18917
2482.06245	0.19007
2480.13389	0.19091
2478.20532	0.19182
2476.27676	0.19270
2474.34819	0.19350
2472.41963	0.19439
2470.49106	0.19528
2468.56250	0.19613
2466.63394	0.19706
2464.70537	0.19801
2462.77681	0.19890
2460.84824	0.19986
2458.91968	0.20089
2456.99111	0.20188
2455.06255	0.20288
2453.13398	0.20387
2451.20542	0.20479
2449.27686	0.20574
2447.34829	0.20678
2445.41973	0.20778
2443.49116	0.20876
2441.56260	0.20979
2439.63403	0.21079
2437.70547	0.21175
2435.77690	0.21276
2433.84834	0.21388
2431.91978	0.21500
2429.99121	0.21597
2428.06265	0.21688
2426.13408	0.21787
2424.20552	0.21894
2422.27695	0.22000
2420.34839	0.22109
2418.41982	0.22223
2416.49126	0.22340
2414.56270	0.22463
2412.63413	0.22590
2410.70557	0.22711
2408.77700	0.22825
2406.84844	0.22944
2404.91987	0.23059
2402.99131	0.23154
2401.06274	0.23244
2399.13418	0.23357
2397.20562	0.23491
2395.27705	0.23628
2393.34849	0.23755
2391.41992	0.23885
2389.49136	0.24027
2387.56279	0.24192
2385.63423	0.24390
2383.70566	0.24633
2381.77710	0.24940
2379.84854	0.25310
2377.91997	0.25694
2375.99141	0.26095
2374.06284	0.26585
2372.13428	0.27160
2370.20571	0.27753
2368.27715	0.28346
2366.34858	0.28939
2364.42002	0.29503
2362.49146	0.30013
2360.56289	0.30409
2358.63433	0.30539
2356.70576	0.30384
2354.77720	0.30080
2352.84863	0.29722
2350.92007	0.29337
2348.99150	0.29100
2347.06294	0.29170
2345.13437	0.29608
2343.20581	0.30244
2341.27725	0.30656
2339.34868	0.30739
2337.42012	0.30734
2335.49155	0.30843
2333.56299	0.31002
2331.63442	0.31117
2329.70586	0.31182
2327.77729	0.31209
2325.84873	0.31217
2323.92017	0.31225
2321.99160	0.31215
2320.06304	0.31171
2318.13447	0.31129
2316.20591	0.31128
2314.27734	0.31187
2312.34878	0.31288
2310.42021	0.31380
2308.49165	0.31435
2306.56309	0.31479
2304.63452	0.31537
2302.70596	0.31630
2300.77739	0.31758
2298.84883	0.31890
2296.92026	0.32019
2294.99170	0.32162
2293.06313	0.32319
2291.13457	0.32458
2289.20601	0.32584
2287.27744	0.32719
2285.34888	0.32864
2283.42031	0.33031
2281.49175	0.33230
2279.56318	0.33451
2277.63462	0.33673
2275.70605	0.33881
2273.77749	0.34080
2271.84893	0.34288
2269.92036	0.34500
2267.99180	0.34712
2266.06323	0.34922
2264.13467	0.35127
2262.20610	0.35322
2260.27754	0.35507
2258.34897	0.35699
2256.42041	0.35911
2254.49185	0.36132
2252.56328	0.36343
2250.63472	0.36550
2248.70615	0.36760
2246.77759	0.36974
2244.84902	0.37195
2242.92046	0.37419
2240.99189	0.37635
2239.06333	0.37846
2237.13477	0.38065
2235.20620	0.38286
2233.27764	0.38507
2231.34907	0.38734
2229.42051	0.38953
2227.49194	0.39168
2225.56338	0.39391
2223.63481	0.39614
2221.70625	0.39828
2219.77769	0.40045
2217.84912	0.40263
2215.92056	0.40478
2213.99199	0.40700
2212.06343	0.40924
2210.13486	0.41135
2208.20630	0.41347
2206.27773	0.41569
2204.34917	0.41785
2202.42061	0.41985
2200.49204	0.42176
2198.56348	0.42365
2196.63491	0.42554
2194.70635	0.42755
2192.77778	0.42961
2190.84922	0.43156
2188.92065	0.43339
2186.99209	0.43517
2185.06353	0.43696
2183.13496	0.43875
2181.20640	0.44042
2179.27783	0.44209
2177.34927	0.44383
2175.42070	0.44542
2173.49214	0.44685
2171.56357	0.44833
2169.63501	0.44980
2167.70645	0.45111
2165.77788	0.45224
2163.84932	0.45342
2161.92075	0.45463
2159.99219	0.45574
2158.06362	0.45674
2156.13506	0.45772
2154.20649	0.45864
2152.27793	0.45943
2150.34937	0.46008
2148.42080	0.46065
2146.49224	0.46116
2144.56367	0.46169
2142.63511	0.46230
2140.70654	0.46294
2138.77798	0.46346
2136.84941	0.46367
2134.92085	0.46361
2132.99229	0.46351
2131.06372	0.46350
2129.13516	0.46340
2127.20659	0.46315
2125.27803	0.46288
2123.34946	0.46255
2121.42090	0.46212
2119.49233	0.46161
2117.56377	0.46099
2115.63521	0.46013
2113.70664	0.45921
2111.77808	0.45839
2109.84951	0.45756
2107.92095	0.45666
2105.99238	0.45561
2104.06382	0.45436
2102.13525	0.45311
2100.20669	0.45191
2098.27812	0.45060
2096.34956	0.44915
2094.42100	0.44760
2092.49243	0.44597
2090.56387	0.44432
2088.63530	0.44263
2086.70674	0.44093
2084.77817	0.43917
2082.84961	0.43730
2080.92104	0.43533
2078.99248	0.43330
2077.06392	0.43123
2075.13535	0.42914
2073.20679	0.42705
2071.27822	0.42490
2069.34966	0.42257
2067.42109	0.42012
2065.49253	0.41776
2063.56396	0.41545
2061.63540	0.41309
2059.70684	0.41058
2057.77827	0.40798
2055.84971	0.40545
2053.92114	0.40296
2051.99258	0.40042
2050.06401	0.39783
2048.13545	0.39524
2046.20688	0.39264
2044.27832	0.39003
2042.34976	0.38731
2040.42119	0.38453
2038.49263	0.38189
2036.56406	0.37935
2034.63550	0.37666
2032.70693	0.37380
2030.77837	0.37096
2028.84980	0.36818
2026.92124	0.36537
2024.99268	0.36245
2023.06411	0.35949
2021.13555	0.35664
2019.20698	0.35402
2017.27842	0.35146
2015.34985	0.34869
2013.42129	0.34577
2011.49272	0.34286
2009.56416	0.34008
2007.63560	0.33737
2005.70703	0.33464
2003.77847	0.33195
2001.84990	0.32932
1999.92134	0.32669
1997.99277	0.32406
1996.06421	0.32158
1994.13564	0.31922
1992.20708	0.31678
1990.27852	0.31416
1988.34995	0.31157
1986.42139	0.30906
1984.49282	0.30657
1982.56426	0.30410
1980.63569	0.30170
1978.70713	0.29943
1976.77856	0.29724
1974.85000	0.29500
1972.92144	0.29269
1970.99287	0.29040
1969.06431	0.28825
1967.13574	0.28624
1965.20718	0.28426
1963.27861	0.28231
1961.35005	0.28041
1959.42148	0.27852
1957.49292	0.27655
1955.56436	0.27456
1953.63579	0.27273
1951.70723	0.27109
1949.77866	0.26950
1947.85010	0.26786
1945.92153	0.26623
1943.99297	0.26475
1942.06440	0.26337
1940.13584	0.26185
1938.20728	0.26027
1936.27871	0.25883
1934.35015	0.25744
1932.42158	0.25608
1930.49302	0.25486
1928.56445	0.25376
1926.63589	0.25267
1924.70732	0.25166
1922.77876	0.25071
1920.85020	0.24969
1918.92163	0.24865
1916.99307	0.24763
1915.06450	0.24665
1913.13594	0.24583
1911.20737	0.24525
1909.27881	0.24465
1907.35024	0.24393
1905.42168	0.24318
1903.49312	0.24251
1901.56455	0.24194
1899.63599	0.24141
1897.70742	0.24095
1895.77886	0.24052
1893.85029	0.24004
1891.92173	0.23955
1889.99316	0.23928
1888.06460	0.23915
1886.13604	0.23895
1884.20747	0.23874
1882.27891	0.23857
1880.35034	0.23838
1878.42178	0.23818
1876.49321	0.23805
1874.56465	0.23798
1872.63608	0.23801
1870.70752	0.23813
1868.77896	0.23852
1866.85039	0.23890
1864.92183	0.23894
1862.99326	0.23894
1861.06470	0.23915
1859.13613	0.23955
1857.20757	0.23994
1855.27900	0.24031
1853.35044	0.24065
1851.42187	0.24109
1849.49331	0.24165
1847.56475	0.24235
1845.63618	0.24321
1843.70762	0.24426
1841.77905	0.24513
1839.85049	0.24559
1837.92192	0.24625
1835.99336	0.24715
1834.06479	0.24805
1832.13623	0.24888
1830.20767	0.25012
1828.27910	0.25167
1826.35054	0.25289
1824.42197	0.25419
1822.49341	0.25539
1820.56484	0.25655
1818.63628	0.25792
1816.70771	0.25954
1814.77915	0.26115
1812.85059	0.26285
1810.92202	0.26491
1808.99346	0.26709
1807.06489	0.26902
1805.13633	0.27078
1803.20776	0.27284
1801.27920	0.27528
1799.35063	0.27812
1797.42207	0.28074
1795.49351	0.28315
1793.56494	0.28586
1791.63638	0.28944
1789.70781	0.29306
1787.77925	0.29580
1785.85068	0.29893
1783.92212	0.30262
1781.99355	0.30645
1780.06499	0.31050
1778.13643	0.31481
1776.20786	0.31881
1774.27930	0.32286
1772.35073	0.32849
1770.42217	0.33513
1768.49360	0.34083
1766.56504	0.34609
1764.63647	0.35127
1762.70791	0.35704
1760.77935	0.36468
1758.85078	0.37189
1756.92222	0.37916
1754.99365	0.38732
1753.06509	0.39466
1751.13652	0.40315
1749.20796	0.41413
1747.27939	0.42510
1745.35083	0.43446
1743.42227	0.44397
1741.49370	0.45435
1739.56514	0.46645
1737.63657	0.47832
1735.70801	0.48840
1733.77944	0.50415
1731.85088	0.52398
1729.92231	0.53967
1727.99375	0.55528
1726.06519	0.57176
1724.13662	0.58986
1722.20806	0.60961
1720.27949	0.62756
1718.35093	0.64839
1716.42236	0.68059
1714.49380	0.71186
1712.56523	0.73663
1710.63667	0.76031
1708.70811	0.78552
1706.77954	0.81419
1704.85098	0.84917
1702.92241	0.88032
1700.99385	0.91034
1699.06528	0.95670
1697.13672	1.00049
1695.20815	1.04512
1693.27959	1.08806
1691.35103	1.12208
1689.42246	1.16160
1687.49390	1.20360
1685.56533	1.24341
1683.63677	1.30701
1681.70820	1.37517
1679.77964	1.41688
1677.85107	1.45609
1675.92251	1.50178
1673.99395	1.56004
1672.06538	1.61248
1670.13682	1.66384
1668.20825	1.73203
1666.27969	1.78631
1664.35112	1.83137
1662.42256	1.88906
1660.49399	1.95684
1658.56543	2.00927
1656.63687	2.05194
1654.70830	2.09261
1652.77974	2.15727
1650.85117	2.21499
1648.92261	2.23108
1646.99404	2.25560
1645.06548	2.28349
1643.13691	2.30163
1641.20835	2.31052
1639.27979	2.31845
1637.35122	2.32272
1635.42266	2.32339
1633.49409	2.32002
1631.56553	2.30734
1629.63696	2.28876
1627.70840	2.25736
1625.77983	2.22309
1623.85127	2.18147
1621.92271	2.13073
1619.99414	2.08640
1618.06558	2.04279
1616.13701	1.97774
1614.20845	1.91224
1612.27988	1.86419
1610.35132	1.81341
1608.42275	1.75767
1606.49419	1.70260
1604.56562	1.65219
1602.63706	1.60357
1600.70850	1.55607
1598.77993	1.51273
1596.85137	1.47234
1594.92280	1.43256
1592.99424	1.39338
1591.06567	1.35779
1589.13711	1.32506
1587.20854	1.29474
1585.27998	1.26662
1583.35142	1.24032
1581.42285	1.21641
1579.49429	1.19621
1577.56572	1.17829
1575.63716	1.15662
1573.70859	1.13819
1571.78003	1.12656
1569.85146	1.11447
1567.92290	1.10160
1565.99434	1.09283
1564.06577	1.08650
1562.13721	1.08176
1560.20864	1.07938
1558.28008	1.07837
1556.35151	1.07824
1554.42295	1.07815
1552.49438	1.07796
1550.56582	1.07650
1548.63726	1.07289
1546.70869	1.06695
1544.78013	1.05791
1542.85156	1.04572
1540.92300	1.02801
1538.99443	1.00050
1537.06587	0.98163
1535.13730	0.96869
1533.20874	0.94991
1531.28018	0.92967
1529.35161	0.91541
1527.42305	0.90203
1525.49448	0.88829
1523.56592	0.87663
1521.63735	0.86480
1519.70879	0.85267
1517.78022	0.84316
1515.85166	0.83257
1513.92310	0.82132
1511.99453	0.81119
1510.06597	0.80185
1508.13740	0.79269
1506.20884	0.77857
1504.28027	0.76736
1502.35171	0.76125
1500.42314	0.75548
1498.49458	0.74900
1496.56602	0.74148
1494.63745	0.73432
1492.70889	0.72887
1490.78032	0.72398
1488.85176	0.71854
1486.92319	0.71379
1484.99463	0.71010
1483.06606	0.70715
1481.13750	0.70478
1479.20894	0.70294
1477.28037	0.70183
1475.35181	0.70156
1473.42324	0.70188
1471.49468	0.70133
1469.56611	0.69957
1467.63755	0.69762
1465.70898	0.69567
1463.78042	0.69374
1461.85186	0.69234
1459.92329	0.69157
1457.99473	0.69123
1456.06616	0.69012
1454.13760	0.68747
1452.20903	0.68465
1450.28047	0.68169
1448.35190	0.67858
1446.42334	0.67550
1444.49478	0.67273
1442.56621	0.67011
1440.63765	0.66738
1438.70908	0.66455
1436.78052	0.66113
1434.85195	0.65740
1432.92339	0.65463
1430.99482	0.65274
1429.06626	0.65158
1427.13770	0.65114
1425.20913	0.65136
1423.28057	0.65202
1421.35200	0.65250
1419.42344	0.65275
1417.49487	0.65256
1415.56631	0.65162
1413.63774	0.65072
1411.70918	0.65052
1409.78062	0.65112
1407.85205	0.65197
1405.92349	0.65309
1403.99492	0.65439
1402.06636	0.65480
1400.13779	0.65409
1398.20923	0.65243
1396.28066	0.64988
1394.35210	0.64636
1392.42354	0.64235
1390.49497	0.63861
1388.56641	0.63483
1386.63784	0.63035
1384.70928	0.62550
1382.78071	0.62098
1380.85215	0.61681
1378.92358	0.61310
1376.99502	0.61014
1375.06646	0.60798
1373.13789	0.60645
1371.20933	0.60552
1369.28076	0.60475
1367.35220	0.60350
1365.42363	0.60191
1363.49507	0.60043
1361.56650	0.59893
1359.63794	0.59732
1357.70937	0.59595
1355.78081	0.59487
1353.85225	0.59398
1351.92368	0.59329
1349.99512	0.59273
1348.06655	0.59214
1346.13799	0.59143
1344.20942	0.59061
1342.28086	0.58969
1340.35229	0.58878
1338.42373	0.58808
1336.49517	0.58760
1334.56660	0.58720
1332.63804	0.58695
1330.70947	0.58700
1328.78091	0.58727
1326.85234	0.58761
1324.92378	0.58814
1322.99521	0.58891
1321.06665	0.58972
1319.13809	0.59030
1317.20952	0.59049
1315.28096	0.59043
1313.35239	0.59020
1311.42383	0.58962
1309.49526	0.58887
1307.56670	0.58833
1305.63813	0.58796
1303.70957	0.58753
1301.78101	0.58690
1299.85244	0.58586
1297.92388	0.58458
1295.99531	0.58347
1294.06675	0.58235
1292.13818	0.58093
1290.20962	0.57963
1288.28105	0.57853
1286.35249	0.57728
1284.42393	0.57604
1282.49536	0.57482
1280.56680	0.57344
1278.63823	0.57201
1276.70967	0.57074
1274.78110	0.56984
1272.85254	0.56927
1270.92397	0.56865
1268.99541	0.56783
1267.06685	0.56704
1265.13828	0.56639
1263.20972	0.56580
1261.28115	0.56518
1259.35259	0.56447
1257.42402	0.56376
1255.49546	0.56338
1253.56689	0.56336
1251.63833	0.56338
1249.70977	0.56346
1247.78120	0.56360
1245.85264	0.56357
1243.92407	0.56310
1241.99551	0.56218
1240.06694	0.56094
1238.13838	0.55934
1236.20981	0.55742
1234.28125	0.55546
1232.35269	0.55353
1230.42412	0.55156
1228.49556	0.54965
1226.56699	0.54789
1224.63843	0.54624
1222.70986	0.54467
1220.78130	0.54330
1218.85273	0.54213
1216.92417	0.54094
1214.99561	0.53980
1213.06704	0.53891
1211.13848	0.53822
1209.20991	0.53762
1207.28135	0.53697
1205.35278	0.53610
1203.42422	0.53510
1201.49565	0.53423
1199.56709	0.53358
1197.63853	0.53296
1195.70996	0.53228
1193.78140	0.53174
1191.85283	0.53138
1189.92427	0.53107
1187.99570	0.53071
1186.06714	0.53046
1184.13857	0.53056
1182.21001	0.53110
1180.28145	0.53209
1178.35288	0.53335
1176.42432	0.53473
1174.49575	0.53601
1172.56719	0.53682
1170.63862	0.53710
1168.71006	0.53698
1166.78149	0.53660
1164.85293	0.53616
1162.92437	0.53574
1160.99580	0.53522
1159.06724	0.53438
1157.13867	0.53322
1155.21011	0.53193
1153.28154	0.53053
1151.35298	0.52873
1149.42441	0.52637
1147.49585	0.52376
1145.56729	0.52127
1143.63872	0.51901
1141.71016	0.51683
1139.78159	0.51465
1137.85303	0.51280
1135.92446	0.51159
1133.99590	0.51072
1132.06733	0.50978
1130.13877	0.50886
1128.21021	0.50815
1126.28164	0.50740
1124.35308	0.50626
1122.42451	0.50506
1120.49595	0.50437
1118.56738	0.50405
1116.63882	0.50368
1114.71025	0.50337
1112.78169	0.50324
1110.85312	0.50326
1108.92456	0.50373
1106.99600	0.50473
1105.06743	0.50580
1103.13887	0.50676
1101.21030	0.50822
1099.28174	0.51051
1097.35317	0.51331
1095.42461	0.51642
1093.49604	0.51979
1091.56748	0.52365
1089.63892	0.52819
1087.71035	0.53329
1085.78179	0.53899
1083.85322	0.54521
1081.92466	0.55125
1079.99609	0.55619
1078.06753	0.55925
1076.13896	0.55978
1074.21040	0.55776
1072.28184	0.55363
1070.35327	0.54800
1068.42471	0.54156
1066.49614	0.53490
1064.56758	0.52853
1062.63901	0.52287
1060.71045	0.51798
1058.78188	0.51361
1056.85332	0.50945
1054.92476	0.50556
1052.99619	0.50229
1051.06763	0.49963
1049.13906	0.49735
1047.21050	0.49548
1045.28193	0.49399
1043.35337	0.49251
1041.42480	0.49096
1039.49624	0.48972
1037.56768	0.48888
1035.63911	0.48826
1033.71055	0.48777
1031.78198	0.48735
1029.85342	0.48695
1027.92485	0.48654
1025.99629	0.48643
1024.06772	0.48687
1022.13916	0.48763
1020.21060	0.48835
1018.28203	0.48913
1016.35347	0.49007
1014.42490	0.49091
1012.49634	0.49162
1010.56777	0.49260
1008.63921	0.49411
1006.71064	0.49584
1004.78208	0.49753
1002.85352	0.49947
1000.92495	0.50212
998.99639	0.50549
997.06782	0.50929
995.13926	0.51330
993.21069	0.51728
991.28213	0.52071
989.35356	0.52318
987.42500	0.52466
985.49644	0.52544
983.56787	0.52597
981.63931	0.52695
979.71074	0.52847
977.78218	0.53026
975.85361	0.53255
973.92505	0.53539
971.99648	0.53851
970.06792	0.54178
968.13936	0.54525
966.21079	0.54904
964.28223	0.55320
962.35366	0.55777
960.42510	0.56279
958.49653	0.56833
956.56797	0.57406
954.63940	0.57966
952.71084	0.58538
950.78228	0.59151
948.85371	0.59805
946.92515	0.60478
944.99658	0.61146
943.06802	0.61767
941.13945	0.62342
939.21089	0.62940
937.28232	0.63567
935.35376	0.64157
933.42520	0.64725
931.49663	0.65318
929.56807	0.65915
927.63950	0.66496
925.71094	0.67062
923.78237	0.67629
921.85381	0.68256
919.92524	0.68936
917.99668	0.69600
916.06812	0.70257
914.13955	0.70985
912.21099	0.71797
910.28242	0.72605
908.35386	0.73335
906.42529	0.74025
904.49673	0.74772
902.56816	0.75672
900.63960	0.76753
898.71104	0.77861
896.78247	0.78803
894.85391	0.79672
892.92534	0.80684
890.99678	0.81836
889.06821	0.83043
887.13965	0.84253
885.21108	0.85354
883.28252	0.86377
881.35396	0.87521
879.42539	0.88803
877.49683	0.90004
875.56826	0.91066
873.63970	0.92106
871.71113	0.93156
869.78257	0.94271
867.85400	0.95441
865.92544	0.96537
863.99687	0.97597
862.06831	0.98669
860.13975	0.99680
858.21118	1.00786
856.28262	1.02090
854.35405	1.03406
852.42549	1.04623
850.49692	1.05827
848.56836	1.07177
846.63979	1.08683
844.71123	1.10009
842.78267	1.10835
840.85410	1.11494
838.92554	1.12494
836.99697	1.13836
835.06841	1.15166
833.13984	1.16322
831.21128	1.17530
829.28271	1.18743
827.35415	1.19610
825.42559	1.20346
823.49702	1.21491
821.56846	1.22810
819.63989	1.23846
817.71133	1.25066
815.78276	1.27255
813.85420	1.29864
811.92563	1.31211
809.99707	1.30787
808.06851	1.30038
806.13994	1.30765
804.21138	1.32456
802.28281	1.33489
800.35425	1.34785
798.42568	1.38081
796.49712	1.40878
794.56855	1.40492
792.63999	1.42359
790.71143	1.50560
788.78286	1.59034
786.85430	1.56527
784.92573	1.48705
782.99717	1.44222
781.06860	1.43510
779.14004	1.44351
777.21147	1.44069
775.28291	1.44675
773.35435	1.47530
771.42578	1.54819
769.49722	1.66241
767.56865	1.63931
765.64009	1.44591
763.71152	1.32717
761.78296	1.30723
759.85439	1.37662
757.92583	1.45159
755.99727	1.42829
754.06870	1.35352
752.14014	1.28261
750.21157	1.26452
748.28301	1.33780
746.35444	1.43356
744.42588	1.48026
742.49731	1.50460
740.56875	1.34685
738.64019	1.13878
736.71162	0.91425
734.78306	0.71559
732.85449	0.61462
730.92593	0.59058
728.99736	0.57437
727.06880	0.55099
725.14023	0.57424
723.21167	0.63075
721.28311	0.51143
719.35454	0.34082
717.42598	0.31124
715.49741	0.34388
713.56885	0.26041
711.64028	-0.03560
709.71172	-0.20788
707.78315	-0.03746
705.85459	0.15383
703.92603	0.29084
701.99746	0.40995
700.06890	0.68331
698.14033	0.97179
696.21177	0.44002
694.28320	0.20858
692.35464	0.22342
690.42607	0.43750
688.49751	0.35882
686.56895	0.12260
684.64038	0.06539
682.71182	0.10985
680.78325	0.17321
678.85469	0.29445
676.92612	0.41306
674.99756	0.35746
673.06899	0.21860
671.14043	0.16783
669.21187	0.26073
667.28330	0.29678
665.35474	0.14345
663.42617	0.02129
661.49761	0.03788
659.56904	0.09829
657.64048	0.11797
655.71191	0.11624
653.78335	0.23157
651.85479	0.64421
649.92622	0.74237
647.99766	0.44306
646.06909	0.35443
644.14053	0.42461
642.21196	0.45161
640.28340	0.36883
638.35483	0.29989
636.42627	0.24205
634.49771	0.18448
632.56914	0.14692
630.64058	0.17034
628.71201	0.16963
626.78345	0.10583
624.85488	0.06326
622.92632	0.09315
620.99775	0.25660
619.06919	0.43245
617.14062	0.35157
615.21206	0.33180
613.28350	0.44774
611.35493	0.64429
609.42637	0.41813
607.49780	0.23969
605.56924	0.18309
603.64067	0.14271
601.71211	0.12502
599.78354	0.16587
597.85498	0.20687
595.92642	0.20991
593.99785	0.23112
592.06929	0.34103
590.14072	0.44497
588.21216	0.31982
586.28359	0.21426
584.35503	0.15087
582.42646	0.11368
580.49790	0.18141
578.56934	0.31141
576.64077	0.33022
574.71221	0.22655
572.78364	0.19798
570.85508	0.21089
568.92651	0.20892
566.99795	0.27116
565.06938	0.33460
563.14082	0.24985
561.21226	0.12622
559.28369	0.03915
557.35513	0.02006
555.42656	0.06272
553.49800	0.10118
551.56943	0.15388
549.64087	0.23139
547.71230	0.25646
545.78374	0.22836
543.85518	0.24914
541.92661	0.34683
539.99805	0.33843
538.06948	0.27446
536.14092	0.29210
534.21235	0.35388
532.28379	0.41798
530.35522	0.42177
528.42666	0.33417
526.49810	0.23650
524.56953	0.17624
522.64097	0.15870
520.71240	0.18131
518.78384	0.19418
516.85527	0.17771
514.92671	0.17056
512.99814	0.14363
511.06958	0.10133
509.14102	0.11235
507.21245	0.20733
505.28389	0.25854
503.35532	0.16245
501.42676	0.11152
499.49819	0.12865
