3997.91411	0.07020
3995.98555	0.07095
3994.05698	0.07168
3992.12842	0.07193
3990.19985	0.07177
3988.27129	0.07168
3986.34272	0.07191
3984.41416	0.07232
3982.48560	0.07265
3980.55703	0.07287
3978.62847	0.07288
3976.69990	0.07278
3974.77134	0.07314
3972.84277	0.07393
3970.91421	0.07440
3968.98564	0.07438
3967.05708	0.07416
3965.12852	0.07384
3963.19995	0.07392
3961.27139	0.07461
3959.34282	0.07516
3957.41426	0.07503
3955.48569	0.07470
3953.55713	0.07463
3951.62856	0.07464
3949.70000	0.07454
3947.77144	0.07456
3945.84287	0.07488
3943.91431	0.07511
3941.98574	0.07497
3940.05718	0.07466
3938.12861	0.07457
3936.20005	0.07471
3934.27148	0.07502
3932.34292	0.07521
3930.41436	0.07503
3928.48579	0.07471
3926.55723	0.07421
3924.62866	0.07388
3922.70010	0.07406
3920.77153	0.07411
3918.84297	0.07386
3916.91440	0.07399
3914.98584	0.07444
3913.05728	0.07457
3911.12871	0.07452
3909.20015	0.07442
3907.27158	0.07417
3905.34302	0.07390
3903.41445	0.07404
3901.48589	0.07447
3899.55732	0.07471
3897.62876	0.07498
3895.70020	0.07497
3893.77163	0.07464
3891.84307	0.07459
3889.91450	0.07475
3887.98594	0.07452
3886.05737	0.07448
3884.12881	0.07507
3882.20024	0.07539
3880.27168	0.07512
3878.34312	0.07486
3876.41455	0.07485
3874.48599	0.07536
3872.55742	0.07628
3870.62886	0.07681
3868.70029	0.07697
3866.77173	0.07711
3864.84316	0.07705
3862.91460	0.07683
3860.98604	0.07670
3859.05747	0.07672
3857.12891	0.07678
3855.20034	0.07677
3853.27178	0.07726
3851.34321	0.07912
3849.41465	0.08035
3847.48608	0.08056
3845.55752	0.08033
3843.62896	0.08011
3841.70039	0.08054
3839.77183	0.08179
3837.84326	0.08346
3835.91470	0.08444
3833.98613	0.08426
3832.05757	0.08415
3830.12900	0.08474
3828.20044	0.08543
3826.27187	0.08622
3824.34331	0.08729
3822.41475	0.08824
3820.48618	0.08937
3818.55762	0.09048
3816.62905	0.09111
3814.70049	0.09180
3812.77192	0.09264
3810.84336	0.09357
3808.91479	0.09461
3806.98623	0.09564
3805.05767	0.09661
3803.12910	0.09766
3801.20054	0.09904
3799.27197	0.10068
3797.34341	0.10243
3795.41484	0.10424
3793.48628	0.10549
3791.55771	0.10657
3789.62915	0.10792
3787.70059	0.10891
3785.77202	0.10962
3783.84346	0.11080
3781.91489	0.11217
3779.98633	0.11356
3778.05776	0.11553
3776.12920	0.11742
3774.20063	0.11872
3772.27207	0.11995
3770.34351	0.12161
3768.41494	0.12371
3766.48638	0.12570
3764.55781	0.12769
3762.62925	0.12968
3760.70068	0.13180
3758.77212	0.13480
3756.84355	0.13786
3754.91499	0.13956
3752.98643	0.14075
3751.05786	0.14282
3749.12930	0.14650
3747.20073	0.14999
3745.27217	0.15304
3743.34360	0.15727
3741.41504	0.16109
3739.48647	0.16381
3737.55791	0.16692
3735.62935	0.17115
3733.70078	0.17691
3731.77222	0.18328
3729.84365	0.18884
3727.91509	0.19325
3725.98652	0.19813
3724.05796	0.20472
3722.12939	0.21208
3720.20083	0.21958
3718.27227	0.22697
3716.34370	0.23395
3714.41514	0.24070
3712.48657	0.24898
3710.55801	0.26193
3708.62944	0.27736
3706.70088	0.29005
3704.77231	0.30134
3702.84375	0.31439
3700.91519	0.33185
3698.98662	0.35120
3697.05806	0.36914
3695.12949	0.38756
3693.20093	0.40666
3691.27236	0.42709
3689.34380	0.45481
3687.41523	0.49121
3685.48667	0.52310
3683.55811	0.54955
3681.62954	0.57755
3679.70098	0.60928
3677.77241	0.64244
3675.84385	0.68149
3673.91528	0.73593
3671.98672	0.78049
3670.05815	0.81946
3668.12959	0.87410
3666.20103	0.92385
3664.27246	0.96490
3662.34390	1.00882
3660.41533	1.05627
3658.48677	1.10251
3656.55820	1.15115
3654.62964	1.20623
3652.70107	1.25226
3650.77251	1.29071
3648.84395	1.34529
3646.91538	1.41694
3644.98682	1.46982
3643.05825	1.50911
3641.12969	1.54861
3639.20112	1.59268
3637.27256	1.63776
3635.34399	1.68158
3633.41543	1.72452
3631.48687	1.76360
3629.55830	1.80301
3627.62974	1.85790
3625.70117	1.91069
3623.77261	1.94477
3621.84404	1.97609
3619.91548	2.01217
3617.98691	2.05753
3616.05835	2.10248
3614.12979	2.13979
3612.20122	2.17852
3610.27266	2.21729
3608.34409	2.25700
3606.41553	2.30139
3604.48696	2.34266
3602.55840	2.37772
3600.62983	2.41544
3598.70127	2.45667
3596.77271	2.49565
3594.84414	2.53488
3592.91558	2.57596
3590.98701	2.61425
3589.05845	2.64902
3587.12988	2.69197
3585.20132	2.74315
3583.27275	2.78595
3581.34419	2.82193
3579.41562	2.86001
3577.48706	2.90298
3575.55850	2.94798
3573.62993	2.99234
3571.70137	3.03246
3569.77280	3.06879
3567.84424	3.10814
3565.91567	3.16105
3563.98711	3.21622
3562.05854	3.26019
3560.12998	3.30054
3558.20142	3.34241
3556.27285	3.38701
3554.34429	3.43219
3552.41572	3.47883
3550.48716	3.52639
3548.55859	3.57081
3546.63003	3.61212
3544.70146	3.65635
3542.77290	3.70593
3540.84434	3.75602
3538.91577	3.80344
3536.98721	3.84931
3535.05864	3.89688
3533.13008	3.94448
3531.20151	3.99300
3529.27295	4.04318
3527.34438	4.09083
3525.41582	4.13344
3523.48726	4.17616
3521.55869	4.22425
3519.63013	4.27245
3517.70156	4.31868
3515.77300	4.36808
3513.84443	4.42060
3511.91587	4.46811
3509.98730	4.51096
3508.05874	4.55788
3506.13018	4.60581
3504.20161	4.65012
3502.27305	4.69996
3500.34448	4.75851
3498.41592	4.81458
3496.48735	4.86100
3494.55879	4.90067
3492.63022	4.94339
3490.70166	4.98904
3488.77310	5.03261
3486.84453	5.07671
3484.91597	5.12492
3482.98740	5.17623
3481.05884	5.22799
3479.13027	5.28276
3477.20171	5.33913
3475.27314	5.38763
3473.34458	5.43076
3471.41602	5.47329
3469.48745	5.51018
3467.55889	5.54834
3465.63032	5.59834
3463.70176	5.65462
3461.77319	5.70398
3459.84463	5.74908
3457.91606	5.80193
3455.98750	5.86374
3454.05894	5.92859
3452.13037	5.99511
3450.20181	6.05337
3448.27324	6.09605
3446.34468	6.14036
3444.41611	6.17650
3442.48755	6.20072
3440.55898	6.24462
3438.63042	6.30318
3436.70186	6.34159
3434.77329	6.37204
3432.84473	6.42562
3430.91616	6.49060
3428.98760	6.56473
3427.05903	6.64780
3425.13047	6.70880
3423.20190	6.73409
3421.27334	6.74420
3419.34478	6.76739
3417.41621	6.81502
3415.48765	6.85266
3413.55908	6.87486
3411.63052	6.91686
3409.70195	6.96453
3407.77339	7.00694
3405.84482	7.04898
3403.91626	7.09715
3401.98770	7.12607
3400.05913	7.13315
3398.13057	7.17537
3396.20200	7.23256
3394.27344	7.25969
3392.34487	7.29311
3390.41631	7.37107
3388.48774	7.43742
3386.55918	7.46725
3384.63062	7.51130
3382.70205	7.57991
3380.77349	7.62062
3378.84492	7.61484
3376.91636	7.62161
3374.98779	7.66329
3373.05923	7.72594
3371.13066	7.78134
3369.20210	7.79593
3367.27354	7.76887
3365.34497	7.78156
3363.41641	7.84473
3361.48784	7.88397
3359.55928	7.89764
3357.63071	7.87391
3355.70215	7.84516
3353.77358	7.88303
3351.84502	7.95826
3349.91646	7.96988
3347.98789	7.90167
3346.05933	7.81021
3344.13076	7.81048
3342.20220	7.91496
3340.27363	7.98369
3338.34507	7.98569
3336.41650	7.91069
3334.48794	7.82398
3332.55937	7.83372
3330.63081	7.87915
3328.70225	7.88519
3326.77368	7.92827
3324.84512	8.00137
3322.91655	7.99950
3320.98799	8.00963
3319.05942	8.05820
3317.13086	8.04912
3315.20229	7.97898
3313.27373	7.89393
3311.34517	7.81994
3309.41660	7.82518
3307.48804	7.94087
3305.55947	8.04637
3303.63091	8.10843
3301.70234	8.19718
3299.77378	8.21706
3297.84521	8.13613
3295.91665	8.10600
3293.98809	8.11040
3292.05952	8.10809
3290.13096	8.13381
3288.20239	8.10827
3286.27383	8.05416
3284.34526	8.09074
3282.41670	8.12515
3280.48813	8.04827
3278.55957	7.99954
3276.63101	8.04333
3274.70244	8.11375
3272.77388	8.10974
3270.84531	8.05243
3268.91675	8.06751
3266.98818	8.10342
3265.05962	8.04913
3263.13105	7.96621
3261.20249	7.99559
3259.27393	8.11654
3257.34536	8.20687
3255.41680	8.21552
3253.48823	8.17135
3251.55967	8.11634
3249.63110	8.04032
3247.70254	7.96289
3245.77397	7.89720
3243.84541	7.85622
3241.91685	7.89034
3239.98828	7.99664
3238.05972	8.06102
3236.13115	8.00549
3234.20259	7.91177
3232.27402	7.84814
3230.34546	7.80785
3228.41689	7.77086
3226.48833	7.76162
3224.55977	7.82539
3222.63120	7.94095
3220.70264	8.02203
3218.77407	7.97888
3216.84551	7.82767
3214.91694	7.73426
3212.98838	7.75166
3211.05981	7.73246
3209.13125	7.62777
3207.20269	7.57490
3205.27412	7.61775
3203.34556	7.66598
3201.41699	7.66822
3199.48843	7.65642
3197.55986	7.66611
3195.63130	7.64758
3193.70273	7.56202
3191.77417	7.48721
3189.84561	7.44639
3187.91704	7.39319
3185.98848	7.32592
3184.05991	7.26488
3182.13135	7.20247
3180.20278	7.17013
3178.27422	7.19673
3176.34565	7.22471
3174.41709	7.21625
3172.48853	7.18126
3170.55996	7.10741
3168.63140	6.99939
3166.70283	6.88233
3164.77427	6.78060
3162.84570	6.71741
3160.91714	6.67663
3158.98857	6.60449
3157.06001	6.51032
3155.13145	6.44204
3153.20288	6.37792
3151.27432	6.29853
3149.34575	6.24010
3147.41719	6.20949
3145.48862	6.17180
3143.56006	6.11477
3141.63149	6.04767
3139.70293	5.97065
3137.77437	5.88483
3135.84580	5.79331
3133.91724	5.71588
3131.98867	5.66017
3130.06011	5.59573
3128.13154	5.51561
3126.20298	5.43948
3124.27441	5.36864
3122.34585	5.29805
3120.41729	5.23312
3118.48872	5.17267
3116.56016	5.10809
3114.63159	5.03603
3112.70303	4.96157
3110.77446	4.89385
3108.84590	4.83116
3106.91733	4.76666
3104.98877	4.70257
3103.06021	4.64014
3101.13164	4.57671
3099.20308	4.51207
3097.27451	4.44473
3095.34595	4.37777
3093.41738	4.31446
3091.48882	4.25038
3089.56025	4.18594
3087.63169	4.12256
3085.70312	4.05845
3083.77456	3.99603
3081.84600	3.93497
3079.91743	3.87285
3077.98887	3.81215
3076.06030	3.75298
3074.13174	3.69433
3072.20317	3.63710
3070.27461	3.58002
3068.34604	3.52275
3066.41748	3.46630
3064.48892	3.41037
3062.56035	3.35431
3060.63179	3.30022
3058.70322	3.24905
3056.77466	3.19787
3054.84609	3.14517
3052.91753	3.09114
3050.98896	3.03752
3049.06040	2.98662
3047.13184	2.93874
3045.20327	2.89187
3043.27471	2.84330
3041.34614	2.79393
3039.41758	2.74662
3037.48901	2.70149
3035.56045	2.65728
3033.63188	2.61297
3031.70332	2.56790
3029.77476	2.52307
3027.84619	2.47970
3025.91763	2.43715
3023.98906	2.39512
3022.06050	2.35398
3020.13193	2.31306
3018.20337	2.27239
3016.27480	2.23274
3014.34624	2.19391
3012.41768	2.15551
3010.48911	2.11790
3008.56055	2.08139
3006.63198	2.04531
3004.70342	2.00937
3002.77485	1.97433
3000.84629	1.94052
2998.91772	1.90731
2996.98916	1.87423
2995.06060	1.84150
2993.13203	1.80959
2991.20347	1.77884
2989.27490	1.74852
2987.34634	1.71754
2985.41777	1.68651
2983.48921	1.65688
2981.56064	1.62881
2979.63208	1.60161
2977.70352	1.57476
2975.77495	1.54765
2973.84639	1.52031
2971.91782	1.49355
2969.98926	1.46762
2968.06069	1.44226
2966.13213	1.41793
2964.20356	1.39437
2962.27500	1.37014
2960.34644	1.34544
2958.41787	1.32146
2956.48931	1.29799
2954.56074	1.27473
2952.63218	1.25204
2950.70361	1.22979
2948.77505	1.20770
2946.84648	1.18586
2944.91792	1.16427
2942.98936	1.14294
2941.06079	1.12236
2939.13223	1.10305
2937.20366	1.08454
2935.27510	1.06589
2933.34653	1.04730
2931.41797	1.02943
2929.48940	1.01167
2927.56084	0.99365
2925.63228	0.97591
2923.70371	0.95842
2921.77515	0.94091
2919.84658	0.92325
2917.91802	0.90564
2915.98945	0.88867
2914.06089	0.87225
2912.13232	0.85590
2910.20376	0.84003
2908.27520	0.82495
2906.34663	0.80986
2904.41807	0.79487
2902.48950	0.78104
2900.56094	0.76797
2898.63237	0.75484
2896.70381	0.74171
2894.77524	0.72891
2892.84668	0.71644
2890.91812	0.70421
2888.98955	0.69252
2887.06099	0.68144
2885.13242	0.67061
2883.20386	0.65986
2881.27529	0.64911
2879.34673	0.63848
2877.41816	0.62835
2875.48960	0.61862
2873.56104	0.60871
2871.63247	0.59865
2869.70391	0.58852
2867.77534	0.57801
2865.84678	0.56735
2863.91821	0.55718
2861.98965	0.54764
2860.06108	0.53831
2858.13252	0.52922
2856.20396	0.52073
2854.27539	0.51263
2852.34683	0.50409
2850.41826	0.49507
2848.48970	0.48610
2846.56113	0.47747
2844.63257	0.46956
2842.70400	0.46244
2840.77544	0.45582
2838.84687	0.44963
2836.91831	0.44370
2834.98975	0.43751
2833.06118	0.43106
2831.13262	0.42495
2829.20405	0.41930
2827.27549	0.41367
2825.34692	0.40779
2823.41836	0.40177
2821.48979	0.39584
2819.56123	0.38995
2817.63267	0.38408
2815.70410	0.37845
2813.77554	0.37320
2811.84697	0.36807
2809.91841	0.36287
2807.98984	0.35760
2806.06128	0.35243
2804.13271	0.34759
2802.20415	0.34288
2800.27559	0.33799
2798.34702	0.33295
2796.41846	0.32794
2794.48989	0.32321
2792.56133	0.31882
2790.63276	0.31450
2788.70420	0.31009
2786.77563	0.30584
2784.84707	0.30200
2782.91851	0.29834
2780.98994	0.29444
2779.06138	0.29027
2777.13281	0.28625
2775.20425	0.28253
2773.27568	0.27892
2771.34712	0.27532
2769.41855	0.27187
2767.48999	0.26859
2765.56143	0.26533
2763.63286	0.26198
2761.70430	0.25871
2759.77573	0.25556
2757.84717	0.25235
2755.91860	0.24918
2753.99004	0.24628
2752.06147	0.24344
2750.13291	0.24050
2748.20435	0.23764
2746.27578	0.23494
2744.34722	0.23234
2742.41865	0.22972
2740.49009	0.22715
2738.56152	0.22475
2736.63296	0.22244
2734.70439	0.22009
2732.77583	0.21775
2730.84727	0.21538
2728.91870	0.21304
2726.99014	0.21081
2725.06157	0.20869
2723.13301	0.20670
2721.20444	0.20479
2719.27588	0.20280
2717.34731	0.20086
2715.41875	0.19910
2713.49019	0.19736
2711.56162	0.19558
2709.63306	0.19388
2707.70449	0.19217
2705.77593	0.19035
2703.84736	0.18864
2701.91880	0.18712
2699.99023	0.18572
2698.06167	0.18444
2696.13311	0.18319
2694.20454	0.18175
2692.27598	0.18035
2690.34741	0.17917
2688.41885	0.17792
2686.49028	0.17651
2684.56172	0.17525
2682.63315	0.17424
2680.70459	0.17338
2678.77603	0.17248
2676.84746	0.17146
2674.91890	0.17030
2672.99033	0.16915
2671.06177	0.16819
2669.13320	0.16728
2667.20464	0.16630
2665.27607	0.16539
2663.34751	0.16458
2661.41895	0.16375
2659.49038	0.16284
2657.56182	0.16198
2655.63325	0.16118
2653.70469	0.16042
2651.77612	0.15972
2649.84756	0.15915
2647.91899	0.15871
2645.99043	0.15823
2644.06187	0.15769
2642.13330	0.15710
2640.20474	0.15654
2638.27617	0.15617
2636.34761	0.15585
2634.41904	0.15537
2632.49048	0.15496
2630.56191	0.15477
2628.63335	0.15455
2626.70479	0.15412
2624.77622	0.15373
2622.84766	0.15347
2620.91909	0.15320
2618.99053	0.15310
2617.06196	0.15317
2615.13340	0.15315
2613.20483	0.15296
2611.27627	0.15271
2609.34771	0.15252
2607.41914	0.15244
2605.49058	0.15243
2603.56201	0.15243
2601.63345	0.15247
2599.70488	0.15262
2597.77632	0.15280
2595.84775	0.15284
2593.91919	0.15275
2591.99062	0.15266
2590.06206	0.15272
2588.13350	0.15297
2586.20493	0.15328
2584.27637	0.15353
2582.34780	0.15375
2580.41924	0.15411
2578.49067	0.15459
2576.56211	0.15499
2574.63354	0.15535
2572.70498	0.15573
2570.77642	0.15605
2568.84785	0.15625
2566.91929	0.15644
2564.99072	0.15681
2563.06216	0.15731
2561.13359	0.15784
2559.20503	0.15835
2557.27646	0.15885
2555.34790	0.15951
2553.41934	0.16024
2551.49077	0.16080
2549.56221	0.16129
2547.63364	0.16169
2545.70508	0.16204
2543.77651	0.16258
2541.84795	0.16334
2539.91938	0.16414
2537.99082	0.16481
2536.06226	0.16541
2534.13369	0.16601
2532.20513	0.16666
2530.27656	0.16748
2528.34800	0.16840
2526.41943	0.16925
2524.49087	0.16994
2522.56230	0.17059
2520.63374	0.17134
2518.70518	0.17212
2516.77661	0.17289
2514.84805	0.17366
2512.91948	0.17448
2510.99092	0.17533
2509.06235	0.17621
2507.13379	0.17710
2505.20522	0.17789
2503.27666	0.17864
2501.34810	0.17944
2499.41953	0.18031
2497.49097	0.18119
2495.56240	0.18201
2493.63384	0.18283
2491.70527	0.18375
2489.77671	0.18463
2487.84814	0.18540
2485.91958	0.18620
2483.99102	0.18715
2482.06245	0.18813
2480.13389	0.18901
2478.20532	0.18995
2476.27676	0.19101
2474.34819	0.19205
2472.41963	0.19299
2470.49106	0.19380
2468.56250	0.19462
2466.63394	0.19561
2464.70537	0.19664
2462.77681	0.19763
2460.84824	0.19870
2458.91968	0.19978
2456.99111	0.20075
2455.06255	0.20164
2453.13398	0.20260
2451.20542	0.20365
2449.27686	0.20471
2447.34829	0.20576
2445.41973	0.20675
2443.49116	0.20767
2441.56260	0.20855
2439.63403	0.20949
2437.70547	0.21056
2435.77690	0.21166
2433.84834	0.21271
2431.91978	0.21377
2429.99121	0.21484
2428.06265	0.21587
2426.13408	0.21687
2424.20552	0.21793
2422.27695	0.21919
2420.34839	0.22044
2418.41982	0.22155
2416.49126	0.22265
2414.56270	0.22382
2412.63413	0.22505
2410.70557	0.22632
2408.77700	0.22755
2406.84844	0.22874
2404.91987	0.22989
2402.99131	0.23095
2401.06274	0.23209
2399.13418	0.23339
2397.20562	0.23470
2395.27705	0.23594
2393.34849	0.23713
2391.41992	0.23844
2389.49136	0.23991
2387.56279	0.24151
2385.63423	0.24326
2383.70566	0.24528
2381.77710	0.24771
2379.84854	0.25035
2377.91997	0.25286
2375.99141	0.25550
2374.06284	0.25870
2372.13428	0.26254
2370.20571	0.26684
2368.27715	0.27117
2366.34858	0.27516
2364.42002	0.27869
2362.49146	0.28165
2360.56289	0.28370
2358.63433	0.28461
2356.70576	0.28532
2354.77720	0.28602
2352.84863	0.28563
2350.92007	0.28408
2348.99150	0.28287
2347.06294	0.28330
2345.13437	0.28601
2343.20581	0.29034
2341.27725	0.29392
2339.34868	0.29550
2337.42012	0.29611
2335.49155	0.29725
2333.56299	0.29854
2331.63442	0.29969
2329.70586	0.30132
2327.77729	0.30318
2325.84873	0.30428
2323.92017	0.30459
2321.99160	0.30479
2320.06304	0.30520
2318.13447	0.30578
2316.20591	0.30641
2314.27734	0.30736
2312.34878	0.30879
2310.42021	0.31024
2308.49165	0.31132
2306.56309	0.31215
2304.63452	0.31304
2302.70596	0.31429
2300.77739	0.31593
2298.84883	0.31759
2296.92026	0.31899
2294.99170	0.32042
2293.06313	0.32217
2291.13457	0.32391
2289.20601	0.32543
2287.27744	0.32693
2285.34888	0.32855
2283.42031	0.33034
2281.49175	0.33232
2279.56318	0.33452
2277.63462	0.33673
2275.70605	0.33881
2273.77749	0.34089
2271.84893	0.34301
2269.92036	0.34508
2267.99180	0.34710
2266.06323	0.34918
2264.13467	0.35132
2262.20610	0.35345
2260.27754	0.35551
2258.34897	0.35753
2256.42041	0.35966
2254.49185	0.36189
2252.56328	0.36408
2250.63472	0.36628
2248.70615	0.36852
2246.77759	0.37070
2244.84902	0.37285
2242.92046	0.37503
2240.99189	0.37724
2239.06333	0.37944
2237.13477	0.38167
2235.20620	0.38389
2233.27764	0.38605
2231.34907	0.38819
2229.42051	0.39036
2227.49194	0.39259
2225.56338	0.39491
2223.63481	0.39721
2221.70625	0.39943
2219.77769	0.40160
2217.84912	0.40378
2215.92056	0.40587
2213.99199	0.40797
2212.06343	0.41028
2210.13486	0.41261
2208.20630	0.41478
2206.27773	0.41697
2204.34917	0.41916
2202.42061	0.42122
2200.49204	0.42326
2198.56348	0.42533
2196.63491	0.42734
2194.70635	0.42929
2192.77778	0.43116
2190.84922	0.43291
2188.92065	0.43467
2186.99209	0.43650
2185.06353	0.43827
2183.13496	0.44010
2181.20640	0.44195
2179.27783	0.44366
2177.34927	0.44531
2175.42070	0.44696
2173.49214	0.44855
2171.56357	0.45003
2169.63501	0.45138
2167.70645	0.45262
2165.77788	0.45388
2163.84932	0.45518
2161.92075	0.45638
2159.99219	0.45744
2158.06362	0.45847
2156.13506	0.45951
2154.20649	0.46050
2152.27793	0.46136
2150.34937	0.46203
2148.42080	0.46254
2146.49224	0.46297
2144.56367	0.46350
2142.63511	0.46416
2140.70654	0.46470
2138.77798	0.46495
2136.84941	0.46500
2134.92085	0.46505
2132.99229	0.46521
2131.06372	0.46536
2129.13516	0.46528
2127.20659	0.46500
2125.27803	0.46471
2123.34946	0.46441
2121.42090	0.46396
2119.49233	0.46327
2117.56377	0.46252
2115.63521	0.46176
2113.70664	0.46098
2111.77808	0.46017
2109.84951	0.45926
2107.92095	0.45828
2105.99238	0.45727
2104.06382	0.45617
2102.13525	0.45494
2100.20669	0.45367
2098.27812	0.45235
2096.34956	0.45087
2094.42100	0.44929
2092.49243	0.44768
2090.56387	0.44607
2088.63530	0.44438
2086.70674	0.44261
2084.77817	0.44076
2082.84961	0.43889
2080.92104	0.43695
2078.99248	0.43484
2077.06392	0.43266
2075.13535	0.43057
2073.20679	0.42846
2071.27822	0.42626
2069.34966	0.42403
2067.42109	0.42183
2065.49253	0.41966
2063.56396	0.41729
2061.63540	0.41476
2059.70684	0.41226
2057.77827	0.40977
2055.84971	0.40724
2053.92114	0.40467
2051.99258	0.40212
2050.06401	0.39958
2048.13545	0.39696
2046.20688	0.39419
2044.27832	0.39142
2042.34976	0.38874
2040.42119	0.38612
2038.49263	0.38353
2036.56406	0.38079
2034.63550	0.37788
2032.70693	0.37498
2030.77837	0.37216
2028.84980	0.36929
2026.92124	0.36646
2024.99268	0.36374
2023.06411	0.36097
2021.13555	0.35813
2019.20698	0.35537
2017.27842	0.35270
2015.34985	0.35000
2013.42129	0.34721
2011.49272	0.34433
2009.56416	0.34146
2007.63560	0.33868
2005.70703	0.33599
2003.77847	0.33338
2001.84990	0.33074
1999.92134	0.32798
1997.99277	0.32526
1996.06421	0.32272
1994.13564	0.32032
1992.20708	0.31780
1990.27852	0.31513
1988.34995	0.31261
1986.42139	0.31025
1984.49282	0.30784
1982.56426	0.30532
1980.63569	0.30280
1978.70713	0.30046
1976.77856	0.29823
1974.85000	0.29599
1972.92144	0.29372
1970.99287	0.29153
1969.06431	0.28948
1967.13574	0.28741
1965.20718	0.28527
1963.27861	0.28328
1961.35005	0.28143
1959.42148	0.27955
1957.49292	0.27760
1955.56436	0.27565
1953.63579	0.27382
1951.70723	0.27208
1949.77866	0.27036
1947.85010	0.26873
1945.92153	0.26720
1943.99297	0.26571
1942.06440	0.26423
1940.13584	0.26276
1938.20728	0.26129
1936.27871	0.25985
1934.35015	0.25849
1932.42158	0.25721
1930.49302	0.25595
1928.56445	0.25473
1926.63589	0.25358
1924.70732	0.25255
1922.77876	0.25157
1920.85020	0.25055
1918.92163	0.24955
1916.99307	0.24859
1915.06450	0.24764
1913.13594	0.24675
1911.20737	0.24606
1909.27881	0.24543
1907.35024	0.24471
1905.42168	0.24396
1903.49312	0.24336
1901.56455	0.24287
1899.63599	0.24237
1897.70742	0.24187
1895.77886	0.24133
1893.85029	0.24078
1891.92173	0.24028
1889.99316	0.24002
1888.06460	0.23992
1886.13604	0.23981
1884.20747	0.23968
1882.27891	0.23951
1880.35034	0.23931
1878.42178	0.23915
1876.49321	0.23909
1874.56465	0.23910
1872.63608	0.23914
1870.70752	0.23913
1868.77896	0.23936
1866.85039	0.23978
1864.92183	0.24002
1862.99326	0.24017
1861.06470	0.24036
1859.13613	0.24065
1857.20757	0.24093
1855.27900	0.24127
1853.35044	0.24172
1851.42187	0.24225
1849.49331	0.24275
1847.56475	0.24334
1845.63618	0.24407
1843.70762	0.24503
1841.77905	0.24595
1839.85049	0.24652
1837.92192	0.24726
1835.99336	0.24817
1834.06479	0.24903
1832.13623	0.24983
1830.20767	0.25103
1828.27910	0.25261
1826.35054	0.25388
1824.42197	0.25513
1822.49341	0.25639
1820.56484	0.25768
1818.63628	0.25911
1816.70771	0.26075
1814.77915	0.26236
1812.85059	0.26401
1810.92202	0.26602
1808.99346	0.26817
1807.06489	0.27008
1805.13633	0.27187
1803.20776	0.27396
1801.27920	0.27639
1799.35063	0.27920
1797.42207	0.28183
1795.49351	0.28424
1793.56494	0.28687
1791.63638	0.29045
1789.70781	0.29419
1787.77925	0.29702
1785.85068	0.30014
1783.92212	0.30380
1781.99355	0.30770
1780.06499	0.31189
1778.13643	0.31627
1776.20786	0.32024
1774.27930	0.32423
1772.35073	0.32978
1770.42217	0.33638
1768.49360	0.34212
1766.56504	0.34747
1764.63647	0.35275
1762.70791	0.35852
1760.77935	0.36611
1758.85078	0.37335
1756.92222	0.38056
1754.99365	0.38848
1753.06509	0.39543
1751.13652	0.40351
1749.20796	0.41420
1747.27939	0.42511
1745.35083	0.43456
1743.42227	0.44417
1741.49370	0.45446
1739.56514	0.46668
1737.63657	0.47907
1735.70801	0.48950
1733.77944	0.50542
1731.85088	0.52566
1729.92231	0.54167
1727.99375	0.55751
1726.06519	0.57425
1724.13662	0.59258
1722.20806	0.61261
1720.27949	0.63077
1718.35093	0.65149
1716.42236	0.68367
1714.49380	0.71546
1712.56523	0.74051
1710.63667	0.76410
1708.70811	0.78913
1706.77954	0.81770
1704.85098	0.85252
1702.92241	0.88356
1700.99385	0.91338
1699.06528	0.95855
1697.13672	1.00060
1695.20815	1.04394
1693.27959	1.08545
1691.35103	1.11753
1689.42246	1.15469
1687.49390	1.19457
1685.56533	1.23232
1683.63677	1.29217
1681.70820	1.35702
1679.77964	1.39729
1677.85107	1.43428
1675.92251	1.47618
1673.99395	1.52903
1672.06538	1.57591
1670.13682	1.62136
1668.20825	1.68302
1666.27969	1.73339
1664.35112	1.77518
1662.42256	1.82723
1660.49399	1.88728
1658.56543	1.93296
1656.63687	1.96873
1654.70830	2.00114
1652.77974	2.05610
1650.85117	2.11236
1648.92261	2.13197
1646.99404	2.15757
1645.06548	2.18683
1643.13691	2.20795
1641.20835	2.22093
1639.27979	2.23292
1637.35122	2.23968
1635.42266	2.24003
1633.49409	2.23798
1631.56553	2.22868
1629.63696	2.21371
1627.70840	2.18812
1625.77983	2.15989
1623.85127	2.12209
1621.92271	2.07342
1619.99414	2.03072
1618.06558	1.98894
1616.13701	1.92745
1614.20845	1.86543
1612.27988	1.81897
1610.35132	1.76972
1608.42275	1.71599
1606.49419	1.66269
1604.56562	1.61370
1602.63706	1.56607
1600.70850	1.51904
1598.77993	1.47595
1596.85137	1.43556
1594.92280	1.39636
1592.99424	1.35877
1591.06567	1.32434
1589.13711	1.29183
1587.20854	1.26129
1585.27998	1.23270
1583.35142	1.20582
1581.42285	1.18117
1579.49429	1.16001
1577.56572	1.14081
1575.63716	1.11688
1573.70859	1.09634
1571.78003	1.08344
1569.85146	1.06934
1567.92290	1.05284
1565.99434	1.04023
1564.06577	1.03025
1562.13721	1.02211
1560.20864	1.01571
1558.28008	1.00637
1556.35151	0.99895
1554.42295	0.99445
1552.49438	0.98956
1550.56582	0.98379
1548.63726	0.97637
1546.70869	0.96816
1544.78013	0.95876
1542.85156	0.94785
1540.92300	0.93396
1538.99443	0.91333
1537.06587	0.89879
1535.13730	0.88870
1533.20874	0.87471
1531.28018	0.85984
1529.35161	0.84927
1527.42305	0.83912
1525.49448	0.82827
1523.56592	0.81905
1521.63735	0.81032
1519.70879	0.80128
1517.78022	0.79369
1515.85166	0.78530
1513.92310	0.77695
1511.99453	0.76974
1510.06597	0.76283
1508.13740	0.75558
1506.20884	0.74469
1504.28027	0.73674
1502.35171	0.73251
1500.42314	0.72826
1498.49458	0.72333
1496.56602	0.71754
1494.63745	0.71193
1492.70889	0.70750
1490.78032	0.70339
1488.85176	0.69875
1486.92319	0.69476
1484.99463	0.69162
1483.06606	0.68879
1481.13750	0.68604
1479.20894	0.68355
1477.28037	0.68155
1475.35181	0.68006
1473.42324	0.67896
1471.49468	0.67734
1469.56611	0.67500
1467.63755	0.67259
1465.70898	0.67031
1463.78042	0.66821
1461.85186	0.66658
1459.92329	0.66527
1457.99473	0.66391
1456.06616	0.66244
1454.13760	0.66071
1452.20903	0.65871
1450.28047	0.65654
1448.35190	0.65429
1446.42334	0.65188
1444.49478	0.64953
1442.56621	0.64729
1440.63765	0.64502
1438.70908	0.64295
1436.78052	0.64074
1434.85195	0.63819
1432.92339	0.63614
1430.99482	0.63474
1429.06626	0.63372
1427.13770	0.63298
1425.20913	0.63251
1423.28057	0.63229
1421.35200	0.63191
1419.42344	0.63129
1417.49487	0.63068
1415.56631	0.62965
1413.63774	0.62847
1411.70918	0.62769
1409.78062	0.62729
1407.85205	0.62700
1405.92349	0.62691
1403.99492	0.62688
1402.06636	0.62635
1400.13779	0.62529
1398.20923	0.62368
1396.28066	0.62154
1394.35210	0.61895
1392.42354	0.61621
1390.49497	0.61362
1388.56641	0.61100
1386.63784	0.60792
1384.70928	0.60467
1382.78071	0.60176
1380.85215	0.59902
1378.92358	0.59657
1376.99502	0.59465
1375.06646	0.59316
1373.13789	0.59195
1371.20933	0.59098
1369.28076	0.59010
1367.35220	0.58912
1365.42363	0.58792
1363.49507	0.58660
1361.56650	0.58533
1359.63794	0.58421
1357.70937	0.58325
1355.78081	0.58227
1353.85225	0.58126
1351.92368	0.58042
1349.99512	0.57972
1348.06655	0.57895
1346.13799	0.57813
1344.20942	0.57729
1342.28086	0.57635
1340.35229	0.57545
1338.42373	0.57462
1336.49517	0.57385
1334.56660	0.57318
1332.63804	0.57262
1330.70947	0.57224
1328.78091	0.57210
1326.85234	0.57214
1324.92378	0.57218
1322.99521	0.57220
1321.06665	0.57223
1319.13809	0.57222
1317.20952	0.57207
1315.28096	0.57174
1313.35239	0.57121
1311.42383	0.57038
1309.49526	0.56950
1307.56670	0.56882
1305.63813	0.56819
1303.70957	0.56744
1301.78101	0.56664
1299.85244	0.56569
1297.92388	0.56452
1295.99531	0.56335
1294.06675	0.56231
1292.13818	0.56132
1290.20962	0.56041
1288.28105	0.55959
1286.35249	0.55870
1284.42393	0.55775
1282.49536	0.55681
1280.56680	0.55591
1278.63823	0.55504
1276.70967	0.55420
1274.78110	0.55334
1272.85254	0.55245
1270.92397	0.55177
1268.99541	0.55132
1267.06685	0.55082
1265.13828	0.55017
1263.20972	0.54958
1261.28115	0.54905
1259.35259	0.54850
1257.42402	0.54799
1255.49546	0.54765
1253.56689	0.54758
1251.63833	0.54765
1249.70977	0.54764
1247.78120	0.54753
1245.85264	0.54731
1243.92407	0.54690
1241.99551	0.54631
1240.06694	0.54550
1238.13838	0.54442
1236.20981	0.54314
1234.28125	0.54176
1232.35269	0.54037
1230.42412	0.53904
1228.49556	0.53777
1226.56699	0.53657
1224.63843	0.53538
1222.70986	0.53416
1220.78130	0.53296
1218.85273	0.53187
1216.92417	0.53101
1214.99561	0.53032
1213.06704	0.52965
1211.13848	0.52889
1209.20991	0.52814
1207.28135	0.52750
1205.35278	0.52683
1203.42422	0.52601
1201.49565	0.52513
1199.56709	0.52430
1197.63853	0.52361
1195.70996	0.52301
1193.78140	0.52250
1191.85283	0.52213
1189.92427	0.52178
1187.99570	0.52133
1186.06714	0.52103
1184.13857	0.52114
1182.21001	0.52156
1180.28145	0.52217
1178.35288	0.52286
1176.42432	0.52346
1174.49575	0.52399
1172.56719	0.52455
1170.63862	0.52501
1168.71006	0.52516
1166.78149	0.52509
1164.85293	0.52501
1162.92437	0.52486
1160.99580	0.52448
1159.06724	0.52382
1157.13867	0.52301
1155.21011	0.52203
1153.28154	0.52080
1151.35298	0.51938
1149.42441	0.51760
1147.49585	0.51544
1145.56729	0.51303
1143.63872	0.51055
1141.71016	0.50823
1139.78159	0.50606
1137.85303	0.50419
1135.92446	0.50281
1133.99590	0.50166
1132.06733	0.50047
1130.13877	0.49944
1128.21021	0.49869
1126.28164	0.49789
1124.35308	0.49690
1122.42451	0.49591
1120.49595	0.49515
1118.56738	0.49475
1116.63882	0.49456
1114.71025	0.49432
1112.78169	0.49398
1110.85312	0.49385
1108.92456	0.49429
1106.99600	0.49525
1105.06743	0.49642
1103.13887	0.49780
1101.21030	0.49956
1099.28174	0.50164
1097.35317	0.50405
1095.42461	0.50694
1093.49604	0.51039
1091.56748	0.51453
1089.63892	0.51941
1087.71035	0.52491
1085.78179	0.53098
1083.85322	0.53747
1081.92466	0.54364
1079.99609	0.54861
1078.06753	0.55188
1076.13896	0.55267
1074.21040	0.55058
1072.28184	0.54635
1070.35327	0.54082
1068.42471	0.53450
1066.49614	0.52789
1064.56758	0.52145
1062.63901	0.51576
1060.71045	0.51096
1058.78188	0.50675
1056.85332	0.50288
1054.92476	0.49926
1052.99619	0.49614
1051.06763	0.49377
1049.13906	0.49191
1047.21050	0.49030
1045.28193	0.48910
1043.35337	0.48825
1041.42480	0.48725
1039.49624	0.48612
1037.56768	0.48529
1035.63911	0.48482
1033.71055	0.48453
1031.78198	0.48436
1029.85342	0.48424
1027.92485	0.48405
1025.99629	0.48383
1024.06772	0.48386
1022.13916	0.48430
1020.21060	0.48501
1018.28203	0.48569
1016.35347	0.48637
1014.42490	0.48727
1012.49634	0.48826
1010.56777	0.48926
1008.63921	0.49055
1006.71064	0.49214
1004.78208	0.49401
1002.85352	0.49632
1000.92495	0.49909
998.99639	0.50225
997.06782	0.50579
995.13926	0.50964
993.21069	0.51351
991.28213	0.51701
989.35356	0.51966
987.42500	0.52124
985.49644	0.52222
983.56787	0.52307
981.63931	0.52387
979.71074	0.52488
977.78218	0.52655
975.85361	0.52890
973.92505	0.53161
971.99648	0.53455
970.06792	0.53777
968.13936	0.54141
966.21079	0.54564
964.28223	0.55038
962.35366	0.55533
960.42510	0.56040
958.49653	0.56564
956.56797	0.57109
954.63940	0.57702
952.71084	0.58331
950.78228	0.58940
948.85371	0.59556
946.92515	0.60222
944.99658	0.60869
943.06802	0.61451
941.13945	0.61991
939.21089	0.62533
937.28232	0.63107
935.35376	0.63705
933.42520	0.64329
931.49663	0.64940
929.56807	0.65483
927.63950	0.65981
925.71094	0.66507
923.78237	0.67135
921.85381	0.67860
919.92524	0.68593
917.99668	0.69267
916.06812	0.69919
914.13955	0.70622
912.21099	0.71399
910.28242	0.72234
908.35386	0.73046
906.42529	0.73860
904.49673	0.74762
902.56816	0.75691
900.63960	0.76606
898.71104	0.77525
896.78247	0.78473
894.85391	0.79462
892.92534	0.80437
890.99678	0.81417
889.06821	0.82409
887.13965	0.83420
885.21108	0.84564
883.28252	0.85774
881.35396	0.86887
879.42539	0.87939
877.49683	0.89044
875.56826	0.90227
873.63970	0.91401
871.71113	0.92531
869.78257	0.93679
867.85400	0.94845
865.92544	0.95999
863.99687	0.97186
862.06831	0.98376
860.13975	0.99453
858.21118	1.00510
856.28262	1.01658
854.35405	1.02813
852.42549	1.03926
850.49692	1.05083
848.56836	1.06276
846.63979	1.07403
844.71123	1.08514
842.78267	1.09672
840.85410	1.10911
838.92554	1.12258
836.99697	1.13602
835.06841	1.14723
833.13984	1.15589
831.21128	1.16435
829.28271	1.17218
827.35415	1.17662
825.42559	1.18261
823.49702	1.19890
821.56846	1.21916
819.63989	1.22983
817.71133	1.23479
815.78276	1.24627
813.85420	1.26388
811.92563	1.27596
809.99707	1.27666
808.06851	1.27577
806.13994	1.28230
804.21138	1.29346
802.28281	1.31209
800.35425	1.33227
798.42568	1.33465
796.49712	1.32466
794.56855	1.32297
792.63999	1.34342
790.71143	1.37465
788.78286	1.37503
786.85430	1.34691
784.92573	1.33477
782.99717	1.33810
781.06860	1.35466
779.14004	1.39985
777.21147	1.42277
775.28291	1.37246
773.35435	1.31215
771.42578	1.26808
769.49722	1.23257
767.56865	1.23104
765.64009	1.25945
763.71152	1.29416
761.78296	1.32459
759.85439	1.32221
757.92583	1.27044
755.99727	1.21402
754.06870	1.22045
752.14014	1.25687
750.21157	1.21756
748.28301	1.16906
746.35444	1.19268
744.42588	1.21352
742.49731	1.20616
740.56875	1.16033
738.64019	1.06661
736.71162	1.03577
734.78306	1.07066
732.85449	1.02798
730.92593	0.82195
728.99736	0.65955
727.06880	0.58691
725.14023	0.47570
723.21167	0.35645
721.28311	0.36009
719.35454	0.41796
717.42598	0.26605
715.49741	0.02901
713.56885	-0.19280
711.64028	-0.34035
709.71172	-0.31499
707.78315	-0.17639
705.85459	-0.13804
703.92603	-0.08207
701.99746	-0.01382
700.06890	0.08624
698.14033	0.17458
696.21177	0.13393
694.28320	0.08968
692.35464	0.12668
690.42607	0.16842
688.49751	0.07136
686.56895	-0.00938
684.64038	0.02873
682.71182	0.05955
680.78325	0.01881
678.85469	0.02175
676.92612	0.10955
674.99756	0.14652
673.06899	0.11201
671.14043	0.14091
669.21187	0.16812
667.28330	0.09549
665.35474	0.07087
663.42617	0.17780
661.49761	0.28286
659.56904	0.25673
657.64048	0.21117
655.71191	0.16277
653.78335	0.13937
651.85479	0.25267
649.92622	0.40826
647.99766	0.30987
646.06909	0.16318
644.14053	0.13776
642.21196	0.18331
640.28340	0.20597
638.35483	0.17078
636.42627	0.12279
634.49771	0.11043
632.56914	0.12356
630.64058	0.12968
628.71201	0.15546
626.78345	0.17664
624.85488	0.10979
622.92632	0.00744
620.99775	-0.02547
619.06919	0.04236
617.14062	0.17236
615.21206	0.28647
613.28350	0.38721
611.35493	0.40740
609.42637	0.29201
607.49780	0.18674
605.56924	0.13373
603.64067	0.10274
601.71211	0.09595
599.78354	0.12218
597.85498	0.12075
595.92642	0.09747
593.99785	0.12820
592.06929	0.21782
590.14072	0.31398
588.21216	0.28128
586.28359	0.13608
584.35503	0.03844
582.42646	0.01025
580.49790	0.06952
578.56934	0.17629
576.64077	0.27903
574.71221	0.27996
572.78364	0.20171
570.85508	0.13267
568.92651	0.09585
566.99795	0.11367
565.06938	0.16284
563.14082	0.20221
561.21226	0.21570
559.28369	0.14285
557.35513	0.02333
555.42656	-0.01890
553.49800	0.05151
551.56943	0.16469
549.64087	0.29191
547.71230	0.40585
545.78374	0.33152
543.85518	0.20918
541.92661	0.17488
539.99805	0.16518
538.06948	0.14606
536.14092	0.14478
534.21235	0.23290
532.28379	0.46979
530.35522	0.43392
528.42666	0.22069
526.49810	0.12550
524.56953	0.16942
522.64097	0.25121
520.71240	0.22676
518.78384	0.18767
516.85527	0.18694
514.92671	0.17397
512.99814	0.14670
511.06958	0.11013
509.14102	0.07257
507.21245	0.09943
505.28389	0.20833
503.35532	0.34471
501.42676	0.42338
499.49819	0.38723
