3997.91411	0.05263
3995.98555	0.05318
3994.05698	0.05382
3992.12842	0.05433
3990.19985	0.05465
3988.27129	0.05485
3986.34272	0.05479
3984.41416	0.05484
3982.48560	0.05538
3980.55703	0.05602
3978.62847	0.05624
3976.69990	0.05625
3974.77134	0.05655
3972.84277	0.05697
3970.91421	0.05721
3968.98564	0.05735
3967.05708	0.05718
3965.12852	0.05682
3963.19995	0.05696
3961.27139	0.05760
3959.34282	0.05789
3957.41426	0.05762
3955.48569	0.05742
3953.55713	0.05739
3951.62856	0.05746
3949.70000	0.05810
3947.77144	0.05908
3945.84287	0.05923
3943.91431	0.05876
3941.98574	0.05882
3940.05718	0.05914
3938.12861	0.05904
3936.20005	0.05876
3934.27148	0.05875
3932.34292	0.05917
3930.41436	0.05969
3928.48579	0.05964
3926.55723	0.05901
3924.62866	0.05850
3922.70010	0.05830
3920.77153	0.05818
3918.84297	0.05832
3916.91440	0.05859
3914.98584	0.05823
3913.05728	0.05742
3911.12871	0.05701
3909.20015	0.05703
3907.27158	0.05734
3905.34302	0.05802
3903.41445	0.05898
3901.48589	0.05976
3899.55732	0.06016
3897.62876	0.05991
3895.70020	0.05907
3893.77163	0.05860
3891.84307	0.05907
3889.91450	0.05966
3887.98594	0.05928
3886.05737	0.05894
3884.12881	0.05947
3882.20024	0.06018
3880.27168	0.06085
3878.34312	0.06074
3876.41455	0.05961
3874.48599	0.05931
3872.55742	0.06021
3870.62886	0.06123
3868.70029	0.06213
3866.77173	0.06255
3864.84316	0.06304
3862.91460	0.06378
3860.98604	0.06343
3859.05747	0.06255
3857.12891	0.06237
3855.20034	0.06302
3853.27178	0.06466
3851.34321	0.06617
3849.41465	0.06569
3847.48608	0.06480
3845.55752	0.06431
3843.62896	0.06472
3841.70039	0.06625
3839.77183	0.06825
3837.84326	0.07018
3835.91470	0.07099
3833.98613	0.07091
3832.05757	0.07109
3830.12900	0.07138
3828.20044	0.07161
3826.27187	0.07235
3824.34331	0.07325
3822.41475	0.07426
3820.48618	0.07661
3818.55762	0.07829
3816.62905	0.07814
3814.70049	0.07833
3812.77192	0.07846
3810.84336	0.07850
3808.91479	0.07940
3806.98623	0.08133
3805.05767	0.08312
3803.12910	0.08415
3801.20054	0.08638
3799.27197	0.08878
3797.34341	0.08910
3795.41484	0.08912
3793.48628	0.08916
3791.55771	0.08926
3789.62915	0.09003
3787.70059	0.09140
3785.77202	0.09325
3783.84346	0.09525
3781.91489	0.09683
3779.98633	0.09844
3778.05776	0.10029
3776.12920	0.10112
3774.20063	0.10156
3772.27207	0.10308
3770.34351	0.10596
3768.41494	0.10951
3766.48638	0.11215
3764.55781	0.11381
3762.62925	0.11514
3760.70068	0.11710
3758.77212	0.12046
3756.84355	0.12351
3754.91499	0.12513
3752.98643	0.12715
3751.05786	0.13156
3749.12930	0.13780
3747.20073	0.14109
3745.27217	0.14236
3743.34360	0.14524
3741.41504	0.14866
3739.48647	0.15113
3737.55791	0.15437
3735.62935	0.15961
3733.70078	0.16605
3731.77222	0.17093
3729.84365	0.17394
3727.91509	0.17687
3725.98652	0.18172
3724.05796	0.18851
3722.12939	0.19555
3720.20083	0.20258
3718.27227	0.20974
3716.34370	0.21707
3714.41514	0.22461
3712.48657	0.23397
3710.55801	0.24785
3708.62944	0.26276
3706.70088	0.27426
3704.77231	0.28502
3702.84375	0.29802
3700.91519	0.31509
3698.98662	0.33346
3697.05806	0.35087
3695.12949	0.36973
3693.20093	0.38982
3691.27236	0.41149
3689.34380	0.44003
3687.41523	0.47577
3685.48667	0.50637
3683.55811	0.53208
3681.62954	0.55973
3679.70098	0.59114
3677.77241	0.62456
3675.84385	0.66533
3673.91528	0.72093
3671.98672	0.76389
3670.05815	0.80166
3668.12959	0.85664
3666.20103	0.90622
3664.27246	0.94611
3662.34390	0.98869
3660.41533	1.03547
3658.48677	1.08232
3656.55820	1.13283
3654.62964	1.18938
3652.70107	1.23529
3650.77251	1.27382
3648.84395	1.32979
3646.91538	1.40228
3644.98682	1.45393
3643.05825	1.49197
3641.12969	1.53128
3639.20112	1.57525
3637.27256	1.61965
3635.34399	1.66339
3633.41543	1.70773
3631.48687	1.74902
3629.55830	1.79047
3627.62974	1.84597
3625.70117	1.89770
3623.77261	1.93126
3621.84404	1.96296
3619.91548	2.00013
3617.98691	2.04671
3616.05835	2.09152
3614.12979	2.12856
3612.20122	2.16817
3610.27266	2.20804
3608.34409	2.24861
3606.41553	2.29266
3604.48696	2.33229
3602.55840	2.36606
3600.62983	2.40327
3598.70127	2.44494
3596.77271	2.48509
3594.84414	2.52604
3592.91558	2.56915
3590.98701	2.60820
3589.05845	2.64316
3587.12988	2.68656
3585.20132	2.73629
3583.27275	2.77741
3581.34419	2.81478
3579.41562	2.85600
3577.48706	2.90021
3575.55850	2.94447
3573.62993	2.98983
3571.70137	3.03386
3569.77280	3.07485
3567.84424	3.11715
3565.91567	3.16779
3563.98711	3.21742
3562.05854	3.25906
3560.12998	3.29994
3558.20142	3.34331
3556.27285	3.38807
3554.34429	3.43060
3552.41572	3.47319
3550.48716	3.51805
3548.55859	3.56406
3546.63003	3.61256
3544.70146	3.66627
3542.77290	3.71877
3540.84434	3.76447
3538.91577	3.80674
3536.98721	3.84791
3535.05864	3.89344
3533.13008	3.94403
3531.20151	3.99567
3529.27295	4.04616
3527.34438	4.09445
3525.41582	4.13969
3523.48726	4.18456
3521.55869	4.23386
3519.63013	4.28418
3517.70156	4.33157
3515.77300	4.37560
3513.84443	4.42014
3511.91587	4.46975
3509.98730	4.52349
3508.05874	4.57627
3506.13018	4.62357
3504.20161	4.66813
3502.27305	4.71285
3500.34448	4.75410
3498.41592	4.79669
3496.48735	4.84850
3494.55879	4.90283
3492.63022	4.95165
3490.70166	4.99454
3488.77310	5.03568
3486.84453	5.08351
3484.91597	5.13810
3482.98740	5.18866
3481.05884	5.23015
3479.13027	5.26796
3477.20171	5.30860
3475.27314	5.35530
3473.34458	5.40503
3471.41602	5.44908
3469.48745	5.49211
3467.55889	5.54583
3465.63032	5.60174
3463.70176	5.64648
3461.77319	5.68752
3459.84463	5.73974
3457.91606	5.79996
3455.98750	5.85551
3454.05894	5.90273
3452.13037	5.95775
3450.20181	6.02474
3448.27324	6.07882
3446.34468	6.12414
3444.41611	6.17875
3442.48755	6.22117
3440.55898	6.24049
3438.63042	6.27960
3436.70186	6.33426
3434.77329	6.36051
3432.84473	6.38268
3430.91616	6.43975
3428.98760	6.52908
3427.05903	6.61403
3425.13047	6.66607
3423.20190	6.68743
3421.27334	6.71396
3419.34478	6.77087
3417.41621	6.83123
3415.48765	6.87573
3413.55908	6.92018
3411.63052	6.95812
3409.70195	6.97163
3407.77339	6.99673
3405.84482	7.04750
3403.91626	7.10142
3401.98770	7.12898
3400.05913	7.14354
3398.13057	7.19647
3396.20200	7.28462
3394.27344	7.36634
3392.34487	7.40843
3390.41631	7.43315
3388.48774	7.45441
3386.55918	7.49243
3384.63062	7.55460
3382.70205	7.58883
3380.77349	7.58447
3378.84492	7.58149
3376.91636	7.59967
3374.98779	7.61902
3373.05923	7.65636
3371.13066	7.74076
3369.20210	7.83021
3367.27354	7.85007
3365.34497	7.81848
3363.41641	7.76268
3361.48784	7.73115
3359.55928	7.78945
3357.63071	7.86552
3355.70215	7.89955
3353.77358	7.93420
3351.84502	7.99820
3349.91646	8.03241
3347.98789	8.01091
3346.05933	7.99008
3344.13076	8.00197
3342.20220	8.01958
3340.27363	8.00668
3338.34507	7.99275
3336.41650	7.99411
3334.48794	8.03280
3332.55937	8.08597
3330.63081	8.11216
3328.70225	8.07625
3326.77368	7.98289
3324.84512	7.92537
3322.91655	7.93240
3320.98799	7.97080
3319.05942	8.01256
3317.13086	8.10715
3315.20229	8.23212
3313.27373	8.25605
3311.34517	8.14904
3309.41660	7.99172
3307.48804	7.89965
3305.55947	7.92785
3303.63091	8.03339
3301.70234	8.10319
3299.77378	8.10514
3297.84521	8.13723
3295.91665	8.24745
3293.98809	8.31544
3292.05952	8.27360
3290.13096	8.21577
3288.20239	8.16230
3286.27383	8.12212
3284.34526	8.14135
3282.41670	8.19952
3280.48813	8.24235
3278.55957	8.22545
3276.63101	8.13850
3274.70244	8.08110
3272.77388	8.11510
3270.84531	8.22106
3268.91675	8.29359
3266.98818	8.22681
3265.05962	8.13049
3263.13105	8.10124
3261.20249	8.11926
3259.27393	8.14356
3257.34536	8.17386
3255.41680	8.13353
3253.48823	8.01459
3251.55967	8.05357
3249.63110	8.27040
3247.70254	8.37610
3245.77397	8.32251
3243.84541	8.25258
3241.91685	8.16205
3239.98828	8.07753
3238.05972	8.01281
3236.13115	7.96069
3234.20259	7.97032
3232.27402	8.05286
3230.34546	8.11886
3228.41689	8.10333
3226.48833	8.03751
3224.55977	7.96974
3222.63120	7.94282
3220.70264	7.90896
3218.77407	7.86297
3216.84551	7.93116
3214.91694	8.09925
3212.98838	8.14182
3211.05981	7.98957
3209.13125	7.82308
3207.20269	7.74783
3205.27412	7.72736
3203.34556	7.67865
3201.41699	7.60525
3199.48843	7.53961
3197.55986	7.50387
3195.63130	7.51962
3193.70273	7.54957
3191.77417	7.55220
3189.84561	7.49245
3187.91704	7.37306
3185.98848	7.29197
3184.05991	7.29498
3182.13135	7.31092
3180.20278	7.28636
3178.27422	7.25321
3176.34565	7.21557
3174.41709	7.14175
3172.48853	7.06469
3170.55996	7.00263
3168.63140	6.91656
3166.70283	6.81068
3164.77427	6.72987
3162.84570	6.67739
3160.91714	6.62727
3158.98857	6.58342
3157.06001	6.53875
3155.13145	6.48022
3153.20288	6.42103
3151.27432	6.36692
3149.34575	6.31184
3147.41719	6.24882
3145.48862	6.18615
3143.56006	6.12427
3141.63149	6.05150
3139.70293	5.97372
3137.77437	5.89440
3135.84580	5.81146
3133.91724	5.73224
3131.98867	5.65999
3130.06011	5.59386
3128.13154	5.52980
3126.20298	5.45985
3124.27441	5.38783
3122.34585	5.31805
3120.41729	5.24392
3118.48872	5.16545
3116.56016	5.09241
3114.63159	5.02525
3112.70303	4.95702
3110.77446	4.89076
3108.84590	4.83176
3106.91733	4.77484
3104.98877	4.71209
3103.06021	4.64495
3101.13164	4.57933
3099.20308	4.51440
3097.27451	4.44535
3095.34595	4.37400
3093.41738	4.30545
3091.48882	4.24318
3089.56025	4.18665
3087.63169	4.12851
3085.70312	4.06591
3083.77456	4.00251
3081.84600	3.94031
3079.91743	3.87898
3077.98887	3.81856
3076.06030	3.76155
3074.13174	3.70799
3072.20317	3.65364
3070.27461	3.59768
3068.34604	3.54284
3066.41748	3.48805
3064.48892	3.43165
3062.56035	3.37617
3060.63179	3.32339
3058.70322	3.27088
3056.77466	3.21686
3054.84609	3.16353
3052.91753	3.11226
3050.98896	3.06149
3049.06040	3.01017
3047.13184	2.95936
3045.20327	2.91088
3043.27471	2.86464
3041.34614	2.81854
3039.41758	2.77213
3037.48901	2.72647
3035.56045	2.68138
3033.63188	2.63604
3031.70332	2.59048
3029.77476	2.54636
3027.84619	2.50439
3025.91763	2.46213
3023.98906	2.41860
3022.06050	2.37662
3020.13193	2.33716
3018.20337	2.29768
3016.27480	2.25715
3014.34624	2.21704
3012.41768	2.17830
3010.48911	2.14077
3008.56055	2.10369
3006.63198	2.06658
3004.70342	2.03045
3002.77485	1.99599
3000.84629	1.96220
2998.91772	1.92862
2996.98916	1.89595
2995.06060	1.86465
2993.13203	1.83392
2991.20347	1.80324
2989.27490	1.77356
2987.34634	1.74522
2985.41777	1.71717
2983.48921	1.68871
2981.56064	1.66056
2979.63208	1.63380
2977.70352	1.60810
2975.77495	1.58274
2973.84639	1.55755
2971.91782	1.53235
2969.98926	1.50766
2968.06069	1.48379
2966.13213	1.46025
2964.20356	1.43659
2962.27500	1.41209
2960.34644	1.38706
2958.41787	1.36317
2956.48931	1.34044
2954.56074	1.31760
2952.63218	1.29428
2950.70361	1.27087
2948.77505	1.24793
2946.84648	1.22559
2944.91792	1.20389
2942.98936	1.18327
2941.06079	1.16344
2939.13223	1.14340
2937.20366	1.12284
2935.27510	1.10229
2933.34653	1.08214
2931.41797	1.06235
2929.48940	1.04276
2927.56084	1.02343
2925.63228	1.00430
2923.70371	0.98574
2921.77515	0.96833
2919.84658	0.95161
2917.91802	0.93456
2915.98945	0.91699
2914.06089	0.89979
2912.13232	0.88329
2910.20376	0.86746
2908.27520	0.85259
2906.34663	0.83826
2904.41807	0.82391
2902.48950	0.80986
2900.56094	0.79637
2898.63237	0.78319
2896.70381	0.76987
2894.77524	0.75657
2892.84668	0.74404
2890.91812	0.73230
2888.98955	0.72088
2887.06099	0.70985
2885.13242	0.69935
2883.20386	0.68895
2881.27529	0.67851
2879.34673	0.66841
2877.41816	0.65873
2875.48960	0.64899
2873.56104	0.63899
2871.63247	0.62870
2869.70391	0.61782
2867.77534	0.60622
2865.84678	0.59427
2863.91821	0.58222
2861.98965	0.57017
2860.06108	0.55847
2858.13252	0.54761
2856.20396	0.53771
2854.27539	0.52841
2852.34683	0.51923
2850.41826	0.51017
2848.48970	0.50176
2846.56113	0.49380
2844.63257	0.48584
2842.70400	0.47850
2840.77544	0.47230
2838.84687	0.46667
2836.91831	0.46085
2834.98975	0.45471
2833.06118	0.44844
2831.13262	0.44236
2829.20405	0.43664
2827.27549	0.43105
2825.34692	0.42527
2823.41836	0.41920
2821.48979	0.41306
2819.56123	0.40722
2817.63267	0.40160
2815.70410	0.39585
2813.77554	0.38996
2811.84697	0.38412
2809.91841	0.37855
2807.98984	0.37317
2806.06128	0.36779
2804.13271	0.36247
2802.20415	0.35722
2800.27559	0.35213
2798.34702	0.34722
2796.41846	0.34241
2794.48989	0.33761
2792.56133	0.33281
2790.63276	0.32819
2788.70420	0.32375
2786.77563	0.31930
2784.84707	0.31481
2782.91851	0.31036
2780.98994	0.30595
2779.06138	0.30163
2777.13281	0.29750
2775.20425	0.29372
2773.27568	0.29010
2771.34712	0.28630
2769.41855	0.28239
2767.48999	0.27860
2765.56143	0.27492
2763.63286	0.27133
2761.70430	0.26786
2759.77573	0.26440
2757.84717	0.26107
2755.91860	0.25792
2753.99004	0.25468
2752.06147	0.25142
2750.13291	0.24834
2748.20435	0.24544
2746.27578	0.24271
2744.34722	0.23993
2742.41865	0.23696
2740.49009	0.23401
2738.56152	0.23121
2736.63296	0.22859
2734.70439	0.22611
2732.77583	0.22362
2730.84727	0.22111
2728.91870	0.21874
2726.99014	0.21647
2725.06157	0.21411
2723.13301	0.21172
2721.20444	0.20957
2719.27588	0.20757
2717.34731	0.20552
2715.41875	0.20351
2713.49019	0.20160
2711.56162	0.19975
2709.63306	0.19785
2707.70449	0.19601
2705.77593	0.19443
2703.84736	0.19297
2701.91880	0.19131
2699.99023	0.18956
2698.06167	0.18794
2696.13311	0.18638
2694.20454	0.18477
2692.27598	0.18321
2690.34741	0.18184
2688.41885	0.18066
2686.49028	0.17948
2684.56172	0.17820
2682.63315	0.17693
2680.70459	0.17576
2678.77603	0.17459
2676.84746	0.17342
2674.91890	0.17236
2672.99033	0.17136
2671.06177	0.17031
2669.13320	0.16908
2667.20464	0.16779
2665.27607	0.16675
2663.34751	0.16597
2661.41895	0.16513
2659.49038	0.16411
2657.56182	0.16314
2655.63325	0.16233
2653.70469	0.16161
2651.77612	0.16092
2649.84756	0.16023
2647.91899	0.15960
2645.99043	0.15897
2644.06187	0.15823
2642.13330	0.15755
2640.20474	0.15699
2638.27617	0.15640
2636.34761	0.15573
2634.41904	0.15512
2632.49048	0.15473
2630.56191	0.15443
2628.63335	0.15404
2626.70479	0.15362
2624.77622	0.15327
2622.84766	0.15297
2620.91909	0.15255
2618.99053	0.15205
2617.06196	0.15178
2615.13340	0.15179
2613.20483	0.15181
2611.27627	0.15161
2609.34771	0.15124
2607.41914	0.15096
2605.49058	0.15079
2603.56201	0.15064
2601.63345	0.15055
2599.70488	0.15053
2597.77632	0.15054
2595.84775	0.15055
2593.91919	0.15059
2591.99062	0.15072
2590.06206	0.15077
2588.13350	0.15066
2586.20493	0.15070
2584.27637	0.15098
2582.34780	0.15125
2580.41924	0.15151
2578.49067	0.15179
2576.56211	0.15205
2574.63354	0.15228
2572.70498	0.15239
2570.77642	0.15254
2568.84785	0.15291
2566.91929	0.15339
2564.99072	0.15375
2563.06216	0.15404
2561.13359	0.15440
2559.20503	0.15485
2557.27646	0.15532
2555.34790	0.15587
2553.41934	0.15646
2551.49077	0.15695
2549.56221	0.15734
2547.63364	0.15774
2545.70508	0.15821
2543.77651	0.15877
2541.84795	0.15943
2539.91938	0.16008
2537.99082	0.16065
2536.06226	0.16115
2534.13369	0.16165
2532.20513	0.16223
2530.27656	0.16290
2528.34800	0.16364
2526.41943	0.16444
2524.49087	0.16526
2522.56230	0.16597
2520.63374	0.16662
2518.70518	0.16740
2516.77661	0.16825
2514.84805	0.16897
2512.91948	0.16953
2510.99092	0.17008
2509.06235	0.17073
2507.13379	0.17163
2505.20522	0.17270
2503.27666	0.17362
2501.34810	0.17422
2499.41953	0.17475
2497.49097	0.17541
2495.56240	0.17617
2493.63384	0.17705
2491.70527	0.17803
2489.77671	0.17903
2487.84814	0.17999
2485.91958	0.18085
2483.99102	0.18165
2482.06245	0.18243
2480.13389	0.18323
2478.20532	0.18402
2476.27676	0.18485
2474.34819	0.18572
2472.41963	0.18653
2470.49106	0.18737
2468.56250	0.18831
2466.63394	0.18921
2464.70537	0.19008
2462.77681	0.19101
2460.84824	0.19191
2458.91968	0.19274
2456.99111	0.19356
2455.06255	0.19446
2453.13398	0.19546
2451.20542	0.19652
2449.27686	0.19759
2447.34829	0.19859
2445.41973	0.19947
2443.49116	0.20025
2441.56260	0.20110
2439.63403	0.20209
2437.70547	0.20312
2435.77690	0.20420
2433.84834	0.20530
2431.91978	0.20634
2429.99121	0.20742
2428.06265	0.20856
2426.13408	0.20971
2424.20552	0.21080
2422.27695	0.21176
2420.34839	0.21272
2418.41982	0.21388
2416.49126	0.21517
2414.56270	0.21642
2412.63413	0.21756
2410.70557	0.21857
2408.77700	0.21958
2406.84844	0.22069
2404.91987	0.22190
2402.99131	0.22309
2401.06274	0.22414
2399.13418	0.22519
2397.20562	0.22642
2395.27705	0.22776
2393.34849	0.22906
2391.41992	0.23033
2389.49136	0.23164
2387.56279	0.23304
2385.63423	0.23435
2383.70566	0.23547
2381.77710	0.23657
2379.84854	0.23785
2377.91997	0.23929
2375.99141	0.24064
2374.06284	0.24185
2372.13428	0.24354
2370.20571	0.24607
2368.27715	0.24768
2366.34858	0.24742
2364.42002	0.24780
2362.49146	0.25013
2360.56289	0.25248
2358.63433	0.25382
2356.70576	0.25501
2354.77720	0.25690
2352.84863	0.25948
2350.92007	0.26151
2348.99150	0.26244
2347.06294	0.26299
2345.13437	0.26419
2343.20581	0.26656
2341.27725	0.26892
2339.34868	0.27023
2337.42012	0.27127
2335.49155	0.27312
2333.56299	0.27527
2331.63442	0.27677
2329.70586	0.27784
2327.77729	0.27936
2325.84873	0.28129
2323.92017	0.28335
2321.99160	0.28538
2320.06304	0.28710
2318.13447	0.28878
2316.20591	0.29071
2314.27734	0.29262
2312.34878	0.29432
2310.42021	0.29585
2308.49165	0.29744
2306.56309	0.29927
2304.63452	0.30106
2302.70596	0.30269
2300.77739	0.30443
2298.84883	0.30628
2296.92026	0.30814
2294.99170	0.30999
2293.06313	0.31170
2291.13457	0.31333
2289.20601	0.31513
2287.27744	0.31712
2285.34888	0.31918
2283.42031	0.32128
2281.49175	0.32344
2279.56318	0.32549
2277.63462	0.32736
2275.70605	0.32931
2273.77749	0.33145
2271.84893	0.33353
2269.92036	0.33546
2267.99180	0.33744
2266.06323	0.33956
2264.13467	0.34178
2262.20610	0.34407
2260.27754	0.34627
2258.34897	0.34833
2256.42041	0.35045
2254.49185	0.35261
2252.56328	0.35477
2250.63472	0.35697
2248.70615	0.35919
2246.77759	0.36137
2244.84902	0.36358
2242.92046	0.36583
2240.99189	0.36809
2239.06333	0.37034
2237.13477	0.37262
2235.20620	0.37487
2233.27764	0.37710
2231.34907	0.37936
2229.42051	0.38167
2227.49194	0.38402
2225.56338	0.38632
2223.63481	0.38854
2221.70625	0.39068
2219.77769	0.39281
2217.84912	0.39500
2215.92056	0.39718
2213.99199	0.39932
2212.06343	0.40152
2210.13486	0.40378
2208.20630	0.40589
2206.27773	0.40787
2204.34917	0.40991
2202.42061	0.41205
2200.49204	0.41419
2198.56348	0.41622
2196.63491	0.41815
2194.70635	0.42011
2192.77778	0.42206
2190.84922	0.42387
2188.92065	0.42563
2186.99209	0.42751
2185.06353	0.42938
2183.13496	0.43119
2181.20640	0.43302
2179.27783	0.43469
2177.34927	0.43614
2175.42070	0.43758
2173.49214	0.43913
2171.56357	0.44072
2169.63501	0.44228
2167.70645	0.44365
2165.77788	0.44482
2163.84932	0.44601
2161.92075	0.44726
2159.99219	0.44843
2158.06362	0.44953
2156.13506	0.45050
2154.20649	0.45129
2152.27793	0.45200
2150.34937	0.45272
2148.42080	0.45345
2146.49224	0.45409
2144.56367	0.45468
2142.63511	0.45521
2140.70654	0.45559
2138.77798	0.45584
2136.84941	0.45598
2134.92085	0.45600
2132.99229	0.45593
2131.06372	0.45585
2129.13516	0.45577
2127.20659	0.45558
2125.27803	0.45534
2123.34946	0.45512
2121.42090	0.45483
2119.49233	0.45434
2117.56377	0.45364
2115.63521	0.45280
2113.70664	0.45197
2111.77808	0.45124
2109.84951	0.45046
2107.92095	0.44950
2105.99238	0.44845
2104.06382	0.44730
2102.13525	0.44597
2100.20669	0.44450
2098.27812	0.44307
2096.34956	0.44168
2094.42100	0.44014
2092.49243	0.43851
2090.56387	0.43685
2088.63530	0.43511
2086.70674	0.43338
2084.77817	0.43166
2082.84961	0.42983
2080.92104	0.42778
2078.99248	0.42565
2077.06392	0.42361
2075.13535	0.42160
2073.20679	0.41948
2071.27822	0.41725
2069.34966	0.41494
2067.42109	0.41257
2065.49253	0.41035
2063.56396	0.40813
2061.63540	0.40571
2059.70684	0.40317
2057.77827	0.40062
2055.84971	0.39807
2053.92114	0.39552
2051.99258	0.39296
2050.06401	0.39032
2048.13545	0.38763
2046.20688	0.38495
2044.27832	0.38238
2042.34976	0.37987
2040.42119	0.37718
2038.49263	0.37426
2036.56406	0.37137
2034.63550	0.36861
2032.70693	0.36587
2030.77837	0.36314
2028.84980	0.36042
2026.92124	0.35770
2024.99268	0.35490
2023.06411	0.35208
2021.13555	0.34935
2019.20698	0.34668
2017.27842	0.34390
2015.34985	0.34101
2013.42129	0.33826
2011.49272	0.33559
2009.56416	0.33286
2007.63560	0.33009
2005.70703	0.32732
2003.77847	0.32452
2001.84990	0.32173
1999.92134	0.31909
1997.99277	0.31663
1996.06421	0.31418
1994.13564	0.31172
1992.20708	0.30927
1990.27852	0.30677
1988.34995	0.30432
1986.42139	0.30179
1984.49282	0.29913
1982.56426	0.29658
1980.63569	0.29422
1978.70713	0.29202
1976.77856	0.28985
1974.85000	0.28759
1972.92144	0.28536
1970.99287	0.28324
1969.06431	0.28122
1967.13574	0.27927
1965.20718	0.27723
1963.27861	0.27512
1961.35005	0.27308
1959.42148	0.27110
1957.49292	0.26918
1955.56436	0.26735
1953.63579	0.26556
1951.70723	0.26383
1949.77866	0.26223
1947.85010	0.26069
1945.92153	0.25923
1943.99297	0.25788
1942.06440	0.25642
1940.13584	0.25466
1938.20728	0.25306
1936.27871	0.25168
1934.35015	0.25028
1932.42158	0.24892
1930.49302	0.24772
1928.56445	0.24666
1926.63589	0.24563
1924.70732	0.24468
1922.77876	0.24384
1920.85020	0.24295
1918.92163	0.24198
1916.99307	0.24094
1915.06450	0.23985
1913.13594	0.23899
1911.20737	0.23844
1909.27881	0.23786
1907.35024	0.23708
1905.42168	0.23622
1903.49312	0.23547
1901.56455	0.23488
1899.63599	0.23444
1897.70742	0.23410
1895.77886	0.23382
1893.85029	0.23351
1891.92173	0.23311
1889.99316	0.23289
1888.06460	0.23271
1886.13604	0.23234
1884.20747	0.23197
1882.27891	0.23172
1880.35034	0.23157
1878.42178	0.23144
1876.49321	0.23134
1874.56465	0.23130
1872.63608	0.23141
1870.70752	0.23181
1868.77896	0.23264
1866.85039	0.23303
1864.92183	0.23264
1862.99326	0.23240
1861.06470	0.23253
1859.13613	0.23286
1857.20757	0.23325
1855.27900	0.23370
1853.35044	0.23417
1851.42187	0.23474
1849.49331	0.23541
1847.56475	0.23623
1845.63618	0.23722
1843.70762	0.23829
1841.77905	0.23897
1839.85049	0.23919
1837.92192	0.23977
1835.99336	0.24071
1834.06479	0.24170
1832.13623	0.24278
1830.20767	0.24439
1828.27910	0.24599
1826.35054	0.24699
1824.42197	0.24819
1822.49341	0.24934
1820.56484	0.25040
1818.63628	0.25172
1816.70771	0.25333
1814.77915	0.25496
1812.85059	0.25674
1810.92202	0.25881
1808.99346	0.26090
1807.06489	0.26288
1805.13633	0.26482
1803.20776	0.26704
1801.27920	0.26966
1799.35063	0.27256
1797.42207	0.27506
1795.49351	0.27736
1793.56494	0.28017
1791.63638	0.28394
1789.70781	0.28738
1787.77925	0.28980
1785.85068	0.29278
1783.92212	0.29650
1781.99355	0.30056
1780.06499	0.30481
1778.13643	0.30896
1776.20786	0.31276
1774.27930	0.31704
1772.35073	0.32324
1770.42217	0.32996
1768.49360	0.33512
1766.56504	0.33990
1764.63647	0.34491
1762.70791	0.35073
1760.77935	0.35833
1758.85078	0.36532
1756.92222	0.37227
1754.99365	0.37990
1753.06509	0.38677
1751.13652	0.39515
1749.20796	0.40605
1747.27939	0.41652
1745.35083	0.42527
1743.42227	0.43446
1741.49370	0.44472
1739.56514	0.45696
1737.63657	0.46924
1735.70801	0.47990
1733.77944	0.49637
1731.85088	0.51632
1729.92231	0.53158
1727.99375	0.54703
1726.06519	0.56379
1724.13662	0.58230
1722.20806	0.60227
1720.27949	0.62042
1718.35093	0.64171
1716.42236	0.67446
1714.49380	0.70579
1712.56523	0.73025
1710.63667	0.75366
1708.70811	0.77886
1706.77954	0.80786
1704.85098	0.84349
1702.92241	0.87531
1700.99385	0.90585
1699.06528	0.95225
1697.13672	0.99598
1695.20815	1.04094
1693.27959	1.08395
1691.35103	1.11816
1689.42246	1.15836
1687.49390	1.20139
1685.56533	1.24252
1683.63677	1.30833
1681.70820	1.37895
1679.77964	1.42242
1677.85107	1.46302
1675.92251	1.50982
1673.99395	1.56908
1672.06538	1.62187
1670.13682	1.67373
1668.20825	1.74465
1666.27969	1.80232
1664.35112	1.85060
1662.42256	1.91281
1660.49399	1.98538
1658.56543	2.04139
1656.63687	2.08693
1654.70830	2.12819
1652.77974	2.19208
1650.85117	2.25281
1648.92261	2.27097
1646.99404	2.29436
1645.06548	2.31789
1643.13691	2.33369
1641.20835	2.34170
1639.27979	2.34930
1637.35122	2.35198
1635.42266	2.34839
1633.49409	2.34163
1631.56553	2.32672
1629.63696	2.30710
1627.70840	2.27736
1625.77983	2.24442
1623.85127	2.20107
1621.92271	2.14832
1619.99414	2.10302
1618.06558	2.05804
1616.13701	1.99017
1614.20845	1.92178
1612.27988	1.87172
1610.35132	1.81921
1608.42275	1.76180
1606.49419	1.70535
1604.56562	1.65380
1602.63706	1.60386
1600.70850	1.55517
1598.77993	1.51096
1596.85137	1.46996
1594.92280	1.43024
1592.99424	1.39169
1591.06567	1.35661
1589.13711	1.32438
1587.20854	1.29507
1585.27998	1.26838
1583.35142	1.24359
1581.42285	1.22117
1579.49429	1.20258
1577.56572	1.18691
1575.63716	1.16842
1573.70859	1.15201
1571.78003	1.14141
1569.85146	1.13097
1567.92290	1.12026
1565.99434	1.11349
1564.06577	1.10946
1562.13721	1.10659
1560.20864	1.10573
1558.28008	1.11105
1556.35151	1.11803
1554.42295	1.12062
1552.49438	1.12312
1550.56582	1.12467
1548.63726	1.12332
1546.70869	1.11829
1544.78013	1.10981
1542.85156	1.09839
1540.92300	1.07979
1538.99443	1.04710
1537.06587	1.02336
1535.13730	1.00767
1533.20874	0.98624
1531.28018	0.96331
1529.35161	0.94719
1527.42305	0.93208
1525.49448	0.91628
1523.56592	0.90315
1521.63735	0.89062
1519.70879	0.87732
1517.78022	0.86625
1515.85166	0.85369
1513.92310	0.84050
1511.99453	0.82908
1510.06597	0.81896
1508.13740	0.80922
1506.20884	0.79245
1504.28027	0.77770
1502.35171	0.76997
1500.42314	0.76346
1498.49458	0.75659
1496.56602	0.74862
1494.63745	0.74054
1492.70889	0.73425
1490.78032	0.72896
1488.85176	0.72287
1486.92319	0.71682
1484.99463	0.71209
1483.06606	0.70860
1481.13750	0.70597
1479.20894	0.70418
1477.28037	0.70338
1475.35181	0.70350
1473.42324	0.70414
1471.49468	0.70400
1469.56611	0.70241
1467.63755	0.70035
1465.70898	0.69851
1463.78042	0.69721
1461.85186	0.69678
1459.92329	0.69710
1457.99473	0.69802
1456.06616	0.69812
1454.13760	0.69584
1452.20903	0.69301
1450.28047	0.69027
1448.35190	0.68773
1446.42334	0.68502
1444.49478	0.68214
1442.56621	0.67938
1440.63765	0.67669
1438.70908	0.67395
1436.78052	0.67062
1434.85195	0.66683
1432.92339	0.66387
1430.99482	0.66201
1429.06626	0.66112
1427.13770	0.66099
1425.20913	0.66162
1423.28057	0.66298
1421.35200	0.66421
1419.42344	0.66503
1417.49487	0.66515
1415.56631	0.66426
1413.63774	0.66342
1411.70918	0.66333
1409.78062	0.66419
1407.85205	0.66573
1405.92349	0.66765
1403.99492	0.66930
1402.06636	0.66976
1400.13779	0.66923
1398.20923	0.66781
1396.28066	0.66526
1394.35210	0.66143
1392.42354	0.65678
1390.49497	0.65224
1388.56641	0.64772
1386.63784	0.64253
1384.70928	0.63691
1382.78071	0.63159
1380.85215	0.62667
1378.92358	0.62242
1376.99502	0.61928
1375.06646	0.61722
1373.13789	0.61576
1371.20933	0.61474
1369.28076	0.61417
1367.35220	0.61338
1365.42363	0.61199
1363.49507	0.61036
1361.56650	0.60868
1359.63794	0.60700
1357.70937	0.60545
1355.78081	0.60411
1353.85225	0.60299
1351.92368	0.60197
1349.99512	0.60113
1348.06655	0.60041
1346.13799	0.59956
1344.20942	0.59867
1342.28086	0.59799
1340.35229	0.59753
1338.42373	0.59698
1336.49517	0.59631
1334.56660	0.59579
1332.63804	0.59558
1330.70947	0.59575
1328.78091	0.59623
1326.85234	0.59689
1324.92378	0.59771
1322.99521	0.59879
1321.06665	0.59997
1319.13809	0.60094
1317.20952	0.60149
1315.28096	0.60169
1313.35239	0.60163
1311.42383	0.60119
1309.49526	0.60040
1307.56670	0.59951
1305.63813	0.59875
1303.70957	0.59820
1301.78101	0.59759
1299.85244	0.59658
1297.92388	0.59522
1295.99531	0.59380
1294.06675	0.59242
1292.13818	0.59112
1290.20962	0.58988
1288.28105	0.58851
1286.35249	0.58688
1284.42393	0.58527
1282.49536	0.58390
1280.56680	0.58262
1278.63823	0.58118
1276.70967	0.57967
1274.78110	0.57832
1272.85254	0.57725
1270.92397	0.57645
1268.99541	0.57580
1267.06685	0.57515
1265.13828	0.57433
1263.20972	0.57334
1261.28115	0.57234
1259.35259	0.57149
1257.42402	0.57082
1255.49546	0.57031
1253.56689	0.57007
1251.63833	0.57018
1249.70977	0.57037
1247.78120	0.57043
1245.85264	0.57032
1243.92407	0.56988
1241.99551	0.56896
1240.06694	0.56759
1238.13838	0.56570
1236.20981	0.56338
1234.28125	0.56089
1232.35269	0.55840
1230.42412	0.55599
1228.49556	0.55371
1226.56699	0.55159
1224.63843	0.54963
1222.70986	0.54792
1220.78130	0.54641
1218.85273	0.54486
1216.92417	0.54329
1214.99561	0.54203
1213.06704	0.54106
1211.13848	0.54028
1209.20991	0.53968
1207.28135	0.53905
1205.35278	0.53820
1203.42422	0.53726
1201.49565	0.53642
1199.56709	0.53557
1197.63853	0.53461
1195.70996	0.53366
1193.78140	0.53290
1191.85283	0.53237
1189.92427	0.53193
1187.99570	0.53146
1186.06714	0.53113
1184.13857	0.53117
1182.21001	0.53162
1180.28145	0.53254
1178.35288	0.53403
1176.42432	0.53578
1174.49575	0.53725
1172.56719	0.53809
1170.63862	0.53842
1168.71006	0.53869
1166.78149	0.53895
1164.85293	0.53891
1162.92437	0.53871
1160.99580	0.53856
1159.06724	0.53834
1157.13867	0.53789
1155.21011	0.53707
1153.28154	0.53564
1151.35298	0.53360
1149.42441	0.53123
1147.49585	0.52860
1145.56729	0.52585
1143.63872	0.52330
1141.71016	0.52091
1139.78159	0.51877
1137.85303	0.51737
1135.92446	0.51671
1133.99590	0.51656
1132.06733	0.51685
1130.13877	0.51727
1128.21021	0.51739
1126.28164	0.51714
1124.35308	0.51656
1122.42451	0.51587
1120.49595	0.51550
1118.56738	0.51576
1116.63882	0.51637
1114.71025	0.51684
1112.78169	0.51712
1110.85312	0.51740
1108.92456	0.51790
1106.99600	0.51886
1105.06743	0.52021
1103.13887	0.52156
1101.21030	0.52282
1099.28174	0.52425
1097.35317	0.52605
1095.42461	0.52857
1093.49604	0.53219
1091.56748	0.53672
1089.63892	0.54224
1087.71035	0.54912
1085.78179	0.55703
1083.85322	0.56511
1081.92466	0.57246
1079.99609	0.57804
1078.06753	0.58071
1076.13896	0.58007
1074.21040	0.57673
1072.28184	0.57139
1070.35327	0.56472
1068.42471	0.55768
1066.49614	0.55083
1064.56758	0.54449
1062.63901	0.53901
1060.71045	0.53434
1058.78188	0.53018
1056.85332	0.52631
1054.92476	0.52280
1052.99619	0.51980
1051.06763	0.51733
1049.13906	0.51523
1047.21050	0.51366
1045.28193	0.51302
1043.35337	0.51299
1041.42480	0.51292
1039.49624	0.51259
1037.56768	0.51232
1035.63911	0.51226
1033.71055	0.51193
1031.78198	0.51099
1029.85342	0.50935
1027.92485	0.50730
1025.99629	0.50571
1024.06772	0.50488
1022.13916	0.50416
1020.21060	0.50348
1018.28203	0.50326
1016.35347	0.50317
1014.42490	0.50283
1012.49634	0.50262
1010.56777	0.50273
1008.63921	0.50284
1006.71064	0.50314
1004.78208	0.50423
1002.85352	0.50610
1000.92495	0.50859
998.99639	0.51173
997.06782	0.51559
995.13926	0.52001
993.21069	0.52438
991.28213	0.52785
989.35356	0.52992
987.42500	0.53060
985.49644	0.53038
983.56787	0.53005
981.63931	0.53008
979.71074	0.53070
977.78218	0.53200
975.85361	0.53384
973.92505	0.53606
971.99648	0.53876
970.06792	0.54198
968.13936	0.54558
966.21079	0.54962
964.28223	0.55413
962.35366	0.55880
960.42510	0.56352
958.49653	0.56845
956.56797	0.57374
954.63940	0.57954
952.71084	0.58562
950.78228	0.59154
948.85371	0.59769
946.92515	0.60446
944.99658	0.61116
943.06802	0.61731
941.13945	0.62319
939.21089	0.62906
937.28232	0.63488
935.35376	0.64066
933.42520	0.64643
931.49663	0.65202
929.56807	0.65760
927.63950	0.66321
925.71094	0.66890
923.78237	0.67516
921.85381	0.68214
919.92524	0.68952
917.99668	0.69665
916.06812	0.70321
914.13955	0.70979
912.21099	0.71672
910.28242	0.72419
908.35386	0.73296
906.42529	0.74271
904.49673	0.75196
902.56816	0.76025
900.63960	0.76891
898.71104	0.77881
896.78247	0.78929
894.85391	0.79953
892.92534	0.80948
890.99678	0.81948
889.06821	0.82970
887.13965	0.84020
885.21108	0.85121
883.28252	0.86267
881.35396	0.87415
879.42539	0.88509
877.49683	0.89567
875.56826	0.90725
873.63970	0.91951
871.71113	0.93104
869.78257	0.94258
867.85400	0.95458
865.92544	0.96624
863.99687	0.97730
862.06831	0.98799
860.13975	0.99865
858.21118	1.00978
856.28262	1.02165
854.35405	1.03408
852.42549	1.04640
850.49692	1.05776
848.56836	1.06928
846.63979	1.08153
844.71123	1.09209
842.78267	1.10122
840.85410	1.11191
838.92554	1.12460
836.99697	1.13818
835.06841	1.15227
833.13984	1.16614
831.21128	1.17765
829.28271	1.18671
827.35415	1.19644
825.42559	1.20807
823.49702	1.21911
821.56846	1.22922
819.63989	1.24071
817.71133	1.25377
815.78276	1.27021
813.85420	1.28306
811.92563	1.28419
809.99707	1.28755
808.06851	1.29999
806.13994	1.30684
804.21138	1.30267
802.28281	1.30547
800.35425	1.32065
798.42568	1.33105
796.49712	1.33285
794.56855	1.33595
792.63999	1.37184
790.71143	1.45949
788.78286	1.50853
786.85430	1.47039
784.92573	1.42412
782.99717	1.37658
781.06860	1.35541
779.14004	1.34930
777.21147	1.31891
775.28291	1.30309
773.35435	1.29906
771.42578	1.27020
769.49722	1.25178
767.56865	1.27588
765.64009	1.32899
763.71152	1.40595
761.78296	1.42863
759.85439	1.36082
757.92583	1.29977
755.99727	1.25443
754.06870	1.22764
752.14014	1.19904
750.21157	1.16067
748.28301	1.16209
746.35444	1.24126
744.42588	1.46027
742.49731	4.45498
740.56875	4.44341
738.64019	1.37896
736.71162	1.04436
734.78306	0.93716
732.85449	0.77784
730.92593	0.55495
728.99736	0.48005
727.06880	0.64875
725.14023	0.66582
723.21167	0.43796
721.28311	0.26775
719.35454	0.22933
717.42598	0.25568
715.49741	0.37992
713.56885	0.63781
711.64028	0.95861
709.71172	1.51696
707.78315	4.24670
705.85459	4.23513
703.92603	0.69744
701.99746	0.58665
700.06890	0.53753
698.14033	0.40810
696.21177	0.37581
694.28320	0.47497
692.35464	0.68432
690.42607	0.92492
688.49751	0.79211
686.56895	0.58327
684.64038	0.51127
682.71182	0.49631
680.78325	0.50599
678.85469	0.54235
676.92612	0.52326
674.99756	0.47602
673.06899	0.46861
671.14043	0.45555
669.21187	0.52842
667.28330	0.87589
665.35474	1.09018
663.42617	0.60514
661.49761	0.47804
659.56904	0.50681
657.64048	0.56124
655.71191	0.60388
653.78335	0.87179
651.85479	3.91113
649.92622	0.91099
647.99766	0.74456
646.06909	0.90711
644.14053	1.14942
642.21196	0.89181
640.28340	0.67264
638.35483	0.62706
636.42627	0.60823
634.49771	0.52664
632.56914	0.50067
630.64058	0.55855
628.71201	0.60386
626.78345	0.56883
624.85488	0.47099
622.92632	0.42961
620.99775	0.49818
619.06919	0.64875
617.14062	0.70731
615.21206	0.53422
613.28350	0.39055
611.35493	0.32523
609.42637	0.34735
607.49780	0.50935
605.56924	0.80678
603.64067	0.74476
601.71211	0.56646
599.78354	0.53859
597.85498	0.50045
595.92642	0.41627
593.99785	0.38840
592.06929	0.42356
590.14072	0.41729
588.21216	0.35677
586.28359	0.35417
584.35503	0.39299
582.42646	0.37522
580.49790	0.37817
578.56934	0.45253
576.64077	0.47892
574.71221	0.45367
572.78364	0.49411
570.85508	0.52870
568.92651	0.39331
566.99795	0.29174
565.06938	0.27912
563.14082	0.28850
561.21226	0.32597
559.28369	0.35951
557.35513	0.33876
555.42656	0.36944
553.49800	0.49802
551.56943	0.47683
549.64087	0.29879
547.71230	0.24227
545.78374	0.32006
543.85518	0.48443
541.92661	0.69566
539.99805	0.71559
538.06948	0.55578
536.14092	0.44967
534.21235	0.41247
532.28379	0.45253
530.35522	0.48639
528.42666	0.42799
526.49810	0.39843
524.56953	0.47734
522.64097	0.63698
520.71240	0.61285
518.78384	0.47144
516.85527	0.34995
514.92671	0.27755
512.99814	0.27108
511.06958	0.30570
509.14102	0.37152
507.21245	0.43279
505.28389	0.51113
503.35532	0.82317
501.42676	0.90804
499.49819	0.41976
