3997.91411	0.07154
3995.98555	0.07190
3994.05698	0.07265
3992.12842	0.07283
3990.19985	0.07247
3988.27129	0.07261
3986.34272	0.07323
3984.41416	0.07374
3982.48560	0.07403
3980.55703	0.07417
3978.62847	0.07423
3976.69990	0.07446
3974.77134	0.07506
3972.84277	0.07564
3970.91421	0.07577
3968.98564	0.07576
3967.05708	0.07579
3965.12852	0.07574
3963.19995	0.07587
3961.27139	0.07612
3959.34282	0.07616
3957.41426	0.07594
3955.48569	0.07581
3953.55713	0.07613
3951.62856	0.07667
3949.70000	0.07709
3947.77144	0.07732
3945.84287	0.07730
3943.91431	0.07702
3941.98574	0.07676
3940.05718	0.07669
3938.12861	0.07673
3936.20005	0.07692
3934.27148	0.07732
3932.34292	0.07778
3930.41436	0.07807
3928.48579	0.07792
3926.55723	0.07740
3924.62866	0.07714
3922.70010	0.07727
3920.77153	0.07713
3918.84297	0.07678
3916.91440	0.07680
3914.98584	0.07693
3913.05728	0.07661
3911.12871	0.07616
3909.20015	0.07589
3907.27158	0.07602
3905.34302	0.07689
3903.41445	0.07847
3901.48589	0.07965
3899.55732	0.07958
3897.62876	0.07887
3895.70020	0.07811
3893.77163	0.07763
3891.84307	0.07764
3889.91450	0.07769
3887.98594	0.07746
3886.05737	0.07760
3884.12881	0.07802
3882.20024	0.07813
3880.27168	0.07805
3878.34312	0.07762
3876.41455	0.07739
3874.48599	0.07820
3872.55742	0.07955
3870.62886	0.08048
3868.70029	0.08087
3866.77173	0.08073
3864.84316	0.08061
3862.91460	0.08066
3860.98604	0.08047
3859.05747	0.08033
3857.12891	0.08062
3855.20034	0.08149
3853.27178	0.08336
3851.34321	0.08494
3849.41465	0.08415
3847.48608	0.08313
3845.55752	0.08304
3843.62896	0.08374
3841.70039	0.08518
3839.77183	0.08771
3837.84326	0.09037
3835.91470	0.09080
3833.98613	0.08968
3832.05757	0.08928
3830.12900	0.08963
3828.20044	0.09001
3826.27187	0.09075
3824.34331	0.09200
3822.41475	0.09360
3820.48618	0.09570
3818.55762	0.09666
3816.62905	0.09648
3814.70049	0.09652
3812.77192	0.09631
3810.84336	0.09614
3808.91479	0.09690
3806.98623	0.09890
3805.05767	0.10115
3803.12910	0.10287
3801.20054	0.10498
3799.27197	0.10679
3797.34341	0.10766
3795.41484	0.10852
3793.48628	0.10879
3791.55771	0.10878
3789.62915	0.10938
3787.70059	0.11060
3785.77202	0.11223
3783.84346	0.11383
3781.91489	0.11511
3779.98633	0.11680
3778.05776	0.11889
3776.12920	0.12002
3774.20063	0.12081
3772.27207	0.12244
3770.34351	0.12490
3768.41494	0.12759
3766.48638	0.12986
3764.55781	0.13191
3762.62925	0.13384
3760.70068	0.13600
3758.77212	0.13893
3756.84355	0.14182
3754.91499	0.14370
3752.98643	0.14569
3751.05786	0.14970
3749.12930	0.15497
3747.20073	0.15777
3745.27217	0.16004
3743.34360	0.16394
3741.41504	0.16733
3739.48647	0.16985
3737.55791	0.17338
3735.62935	0.17927
3733.70078	0.18694
3731.77222	0.19260
3729.84365	0.19590
3727.91509	0.19908
3725.98652	0.20410
3724.05796	0.21093
3722.12939	0.21774
3720.20083	0.22424
3718.27227	0.23091
3716.34370	0.23792
3714.41514	0.24519
3712.48657	0.25442
3710.55801	0.26855
3708.62944	0.28409
3706.70088	0.29607
3704.77231	0.30710
3702.84375	0.32039
3700.91519	0.33818
3698.98662	0.35729
3697.05806	0.37474
3695.12949	0.39335
3693.20093	0.41349
3691.27236	0.43557
3689.34380	0.46448
3687.41523	0.50026
3685.48667	0.53106
3683.55811	0.55711
3681.62954	0.58522
3679.70098	0.61764
3677.77241	0.65195
3675.84385	0.69210
3673.91528	0.74708
3671.98672	0.79155
3670.05815	0.83054
3668.12959	0.88519
3666.20103	0.93428
3664.27246	0.97465
3662.34390	1.01848
3660.41533	1.06621
3658.48677	1.11283
3656.55820	1.16226
3654.62964	1.21812
3652.70107	1.26475
3650.77251	1.30444
3648.84395	1.36056
3646.91538	1.43143
3644.98682	1.48205
3643.05825	1.52044
3641.12969	1.56066
3639.20112	1.60603
3637.27256	1.65162
3635.34399	1.69537
3633.41543	1.73876
3631.48687	1.77875
3629.55830	1.81898
3627.62974	1.87402
3625.70117	1.92602
3623.77261	1.95974
3621.84404	1.99172
3619.91548	2.02914
3617.98691	2.07543
3616.05835	2.11980
3614.12979	2.15642
3612.20122	2.19624
3610.27266	2.23677
3608.34409	2.27626
3606.41553	2.31852
3604.48696	2.35773
3602.55840	2.39134
3600.62983	2.42817
3598.70127	2.46936
3596.77271	2.50925
3594.84414	2.55023
3592.91558	2.59311
3590.98701	2.63267
3589.05845	2.66834
3587.12988	2.71050
3585.20132	2.75823
3583.27275	2.79935
3581.34419	2.83671
3579.41562	2.87670
3577.48706	2.92019
3575.55850	2.96390
3573.62993	3.00687
3571.70137	3.04834
3569.77280	3.08876
3567.84424	3.13071
3565.91567	3.18067
3563.98711	3.22916
3562.05854	3.26819
3560.12998	3.30920
3558.20142	3.35463
3556.27285	3.39882
3554.34429	3.44137
3552.41572	3.48823
3550.48716	3.53884
3548.55859	3.58687
3546.63003	3.63092
3544.70146	3.67582
3542.77290	3.72295
3540.84434	3.76831
3538.91577	3.81025
3536.98721	3.85272
3535.05864	3.90333
3533.13008	3.95845
3531.20151	4.01063
3529.27295	4.05813
3527.34438	4.10463
3525.41582	4.15212
3523.48726	4.19917
3521.55869	4.24840
3519.63013	4.29919
3517.70156	4.34921
3515.77300	4.39620
3513.84443	4.44015
3511.91587	4.48528
3509.98730	4.53579
3508.05874	4.58628
3506.13018	4.63016
3504.20161	4.67289
3502.27305	4.71954
3500.34448	4.76770
3498.41592	4.81558
3496.48735	4.86550
3494.55879	4.91615
3492.63022	4.96839
3490.70166	5.02363
3488.77310	5.07536
3486.84453	5.11771
3484.91597	5.15332
3482.98740	5.19295
3481.05884	5.24192
3479.13027	5.29445
3477.20171	5.34760
3475.27314	5.40308
3473.34458	5.45791
3471.41602	5.50085
3469.48745	5.53413
3467.55889	5.57832
3465.63032	5.63369
3463.70176	5.68403
3461.77319	5.73315
3459.84463	5.79477
3457.91606	5.85449
3455.98750	5.89512
3454.05894	5.93366
3452.13037	5.98819
3450.20181	6.04482
3448.27324	6.09097
3446.34468	6.13680
3444.41611	6.17711
3442.48755	6.21490
3440.55898	6.26249
3438.63042	6.31286
3436.70186	6.36974
3434.77329	6.44311
3432.84473	6.50669
3430.91616	6.54705
3428.98760	6.59435
3427.05903	6.64730
3425.13047	6.70146
3423.20190	6.75572
3421.27334	6.79517
3419.34478	6.83707
3417.41621	6.90684
3415.48765	6.96741
3413.55908	6.98067
3411.63052	6.97999
3409.70195	6.99718
3407.77339	7.04790
3405.84482	7.13152
3403.91626	7.22936
3401.98770	7.29964
3400.05913	7.33234
3398.13057	7.34912
3396.20200	7.35830
3394.27344	7.37968
3392.34487	7.40715
3390.41631	7.45321
3388.48774	7.50894
3386.55918	7.55359
3384.63062	7.59809
3382.70205	7.63622
3380.77349	7.66526
3378.84492	7.69908
3376.91636	7.71309
3374.98779	7.68693
3373.05923	7.67387
3371.13066	7.67976
3369.20210	7.72062
3367.27354	7.82039
3365.34497	7.93551
3363.41641	7.99839
3361.48784	7.99026
3359.55928	7.97956
3357.63071	7.96823
3355.70215	7.90416
3353.77358	7.85698
3351.84502	7.93587
3349.91646	8.05169
3347.98789	8.07020
3346.05933	8.03183
3344.13076	8.02084
3342.20220	8.05769
3340.27363	8.09879
3338.34507	8.13156
3336.41650	8.14211
3334.48794	8.09687
3332.55937	8.03870
3330.63081	8.09157
3328.70225	8.19283
3326.77368	8.14556
3324.84512	8.03538
3322.91655	8.02461
3320.98799	8.07451
3319.05942	8.06452
3317.13086	8.01114
3315.20229	7.97194
3313.27373	7.98851
3311.34517	8.06927
3309.41660	8.15963
3307.48804	8.19754
3305.55947	8.18227
3303.63091	8.18778
3301.70234	8.18209
3299.77378	8.10651
3297.84521	8.04641
3295.91665	8.08647
3293.98809	8.12082
3292.05952	8.05211
3290.13096	7.99824
3288.20239	8.05188
3286.27383	8.12350
3284.34526	8.09795
3282.41670	8.04024
3280.48813	7.99594
3278.55957	7.98570
3276.63101	8.07333
3274.70244	8.21093
3272.77388	8.25991
3270.84531	8.20905
3268.91675	8.12730
3266.98818	8.07329
3265.05962	8.08016
3263.13105	8.07204
3261.20249	8.02896
3259.27393	8.02775
3257.34536	8.07749
3255.41680	8.09560
3253.48823	8.05158
3251.55967	8.03117
3249.63110	8.06679
3247.70254	8.08820
3245.77397	8.07037
3243.84541	8.08586
3241.91685	8.12115
3239.98828	8.08705
3238.05972	8.03864
3236.13115	8.11750
3234.20259	8.30462
3232.27402	8.40269
3230.34546	8.33781
3228.41689	8.24850
3226.48833	8.21111
3224.55977	8.18786
3222.63120	8.11589
3220.70264	7.99188
3218.77407	7.89604
3216.84551	7.87492
3214.91694	7.89127
3212.98838	7.85006
3211.05981	7.77942
3209.13125	7.80496
3207.20269	7.89524
3205.27412	7.93038
3203.34556	7.87946
3201.41699	7.79602
3199.48843	7.74418
3197.55986	7.71050
3195.63130	7.63916
3193.70273	7.58193
3191.77417	7.56756
3189.84561	7.52224
3187.91704	7.46284
3185.98848	7.43154
3184.05991	7.37439
3182.13135	7.29660
3180.20278	7.25800
3178.27422	7.22543
3176.34565	7.17043
3174.41709	7.12005
3172.48853	7.08271
3170.55996	7.05688
3168.63140	7.02434
3166.70283	6.96475
3164.77427	6.88629
3162.84570	6.80526
3160.91714	6.73084
3158.98857	6.67309
3157.06001	6.62597
3155.13145	6.57313
3153.20288	6.50064
3151.27432	6.41321
3149.34575	6.33046
3147.41719	6.25847
3145.48862	6.20158
3143.56006	6.14845
3141.63149	6.07524
3139.70293	5.98200
3137.77437	5.89919
3135.84580	5.83895
3133.91724	5.77271
3131.98867	5.69085
3130.06011	5.61244
3128.13154	5.55057
3126.20298	5.49888
3124.27441	5.43394
3122.34585	5.35265
3120.41729	5.27883
3118.48872	5.21795
3116.56016	5.15267
3114.63159	5.07765
3112.70303	5.00229
3110.77446	4.93036
3108.84590	4.86144
3106.91733	4.79466
3104.98877	4.72591
3103.06021	4.65666
3101.13164	4.59012
3099.20308	4.52559
3097.27451	4.46282
3095.34595	4.39770
3093.41738	4.32872
3091.48882	4.26159
3089.56025	4.19712
3087.63169	4.13161
3085.70312	4.06477
3083.77456	3.99798
3081.84600	3.93233
3079.91743	3.86974
3077.98887	3.80980
3076.06030	3.74969
3074.13174	3.69164
3072.20317	3.63739
3070.27461	3.58066
3068.34604	3.51879
3066.41748	3.45772
3064.48892	3.40084
3062.56035	3.34549
3060.63179	3.29013
3058.70322	3.23667
3056.77466	3.18514
3054.84609	3.13154
3052.91753	3.07559
3050.98896	3.02258
3049.06040	2.97296
3047.13184	2.92288
3045.20327	2.87255
3043.27471	2.82427
3041.34614	2.77749
3039.41758	2.73154
3037.48901	2.68656
3035.56045	2.64033
3033.63188	2.59242
3031.70332	2.54554
3029.77476	2.50084
3027.84619	2.45831
3025.91763	2.41708
3023.98906	2.37538
3022.06050	2.33366
3020.13193	2.29364
3018.20337	2.25476
3016.27480	2.21550
3014.34624	2.17603
3012.41768	2.13661
3010.48911	2.09759
3008.56055	2.06038
3006.63198	2.02493
3004.70342	1.98973
3002.77485	1.95448
3000.84629	1.91994
2998.91772	1.88590
2996.98916	1.85199
2995.06060	1.81840
2993.13203	1.78536
2991.20347	1.75301
2989.27490	1.72130
2987.34634	1.69024
2985.41777	1.65946
2983.48921	1.62869
2981.56064	1.59848
2979.63208	1.56918
2977.70352	1.54071
2975.77495	1.51276
2973.84639	1.48445
2971.91782	1.45585
2969.98926	1.42829
2968.06069	1.40162
2966.13213	1.37510
2964.20356	1.34929
2962.27500	1.32434
2960.34644	1.29984
2958.41787	1.27584
2956.48931	1.25245
2954.56074	1.22951
2952.63218	1.20679
2950.70361	1.18425
2948.77505	1.16225
2946.84648	1.14072
2944.91792	1.11926
2942.98936	1.09777
2941.06079	1.07644
2939.13223	1.05584
2937.20366	1.03615
2935.27510	1.01671
2933.34653	0.99754
2931.41797	0.97956
2929.48940	0.96237
2927.56084	0.94499
2925.63228	0.92758
2923.70371	0.91012
2921.77515	0.89275
2919.84658	0.87628
2917.91802	0.86067
2915.98945	0.84553
2914.06089	0.83074
2912.13232	0.81618
2910.20376	0.80214
2908.27520	0.78854
2906.34663	0.77459
2904.41807	0.76045
2902.48950	0.74715
2900.56094	0.73464
2898.63237	0.72234
2896.70381	0.71007
2894.77524	0.69783
2892.84668	0.68570
2890.91812	0.67365
2888.98955	0.66190
2887.06099	0.65059
2885.13242	0.63946
2883.20386	0.62827
2881.27529	0.61704
2879.34673	0.60619
2877.41816	0.59592
2875.48960	0.58565
2873.56104	0.57531
2871.63247	0.56548
2869.70391	0.55610
2867.77534	0.54673
2865.84678	0.53738
2863.91821	0.52811
2861.98965	0.51893
2860.06108	0.50994
2858.13252	0.50115
2856.20396	0.49255
2854.27539	0.48419
2852.34683	0.47631
2850.41826	0.46873
2848.48970	0.46110
2846.56113	0.45379
2844.63257	0.44687
2842.70400	0.44007
2840.77544	0.43368
2838.84687	0.42794
2836.91831	0.42249
2834.98975	0.41679
2833.06118	0.41079
2831.13262	0.40489
2829.20405	0.39922
2827.27549	0.39364
2825.34692	0.38799
2823.41836	0.38231
2821.48979	0.37678
2819.56123	0.37116
2817.63267	0.36527
2815.70410	0.35958
2813.77554	0.35441
2811.84697	0.34942
2809.91841	0.34432
2807.98984	0.33923
2806.06128	0.33434
2804.13271	0.32968
2802.20415	0.32510
2800.27559	0.32039
2798.34702	0.31561
2796.41846	0.31089
2794.48989	0.30631
2792.56133	0.30212
2790.63276	0.29821
2788.70420	0.29424
2786.77563	0.29030
2784.84707	0.28656
2782.91851	0.28290
2780.98994	0.27911
2779.06138	0.27529
2777.13281	0.27164
2775.20425	0.26807
2773.27568	0.26451
2771.34712	0.26109
2769.41855	0.25790
2767.48999	0.25490
2765.56143	0.25180
2763.63286	0.24848
2761.70430	0.24522
2759.77573	0.24217
2757.84717	0.23920
2755.91860	0.23631
2753.99004	0.23360
2752.06147	0.23088
2750.13291	0.22811
2748.20435	0.22549
2746.27578	0.22295
2744.34722	0.22029
2742.41865	0.21771
2740.49009	0.21543
2738.56152	0.21320
2736.63296	0.21086
2734.70439	0.20862
2732.77583	0.20651
2730.84727	0.20438
2728.91870	0.20217
2726.99014	0.20008
2725.06157	0.19821
2723.13301	0.19638
2721.20444	0.19450
2719.27588	0.19264
2717.34731	0.19086
2715.41875	0.18915
2713.49019	0.18735
2711.56162	0.18549
2709.63306	0.18388
2707.70449	0.18255
2705.77593	0.18119
2703.84736	0.17966
2701.91880	0.17803
2699.99023	0.17645
2698.06167	0.17507
2696.13311	0.17378
2694.20454	0.17244
2692.27598	0.17106
2690.34741	0.16982
2688.41885	0.16872
2686.49028	0.16761
2684.56172	0.16653
2682.63315	0.16551
2680.70459	0.16452
2678.77603	0.16363
2676.84746	0.16271
2674.91890	0.16161
2672.99033	0.16059
2671.06177	0.15978
2669.13320	0.15877
2667.20464	0.15760
2665.27607	0.15671
2663.34751	0.15612
2661.41895	0.15549
2659.49038	0.15473
2657.56182	0.15396
2655.63325	0.15327
2653.70469	0.15263
2651.77612	0.15196
2649.84756	0.15139
2647.91899	0.15100
2645.99043	0.15066
2644.06187	0.15013
2642.13330	0.14949
2640.20474	0.14907
2638.27617	0.14893
2636.34761	0.14872
2634.41904	0.14831
2632.49048	0.14799
2630.56191	0.14781
2628.63335	0.14754
2626.70479	0.14721
2624.77622	0.14696
2622.84766	0.14674
2620.91909	0.14662
2618.99053	0.14668
2617.06196	0.14674
2615.13340	0.14664
2613.20483	0.14658
2611.27627	0.14661
2609.34771	0.14653
2607.41914	0.14636
2605.49058	0.14633
2603.56201	0.14647
2601.63345	0.14668
2599.70488	0.14687
2597.77632	0.14698
2595.84775	0.14706
2593.91919	0.14717
2591.99062	0.14727
2590.06206	0.14745
2588.13350	0.14779
2586.20493	0.14823
2584.27637	0.14864
2582.34780	0.14899
2580.41924	0.14941
2578.49067	0.14979
2576.56211	0.15005
2574.63354	0.15029
2572.70498	0.15061
2570.77642	0.15100
2568.84785	0.15151
2566.91929	0.15216
2564.99072	0.15276
2563.06216	0.15309
2561.13359	0.15336
2559.20503	0.15381
2557.27646	0.15433
2555.34790	0.15490
2553.41934	0.15560
2551.49077	0.15634
2549.56221	0.15703
2547.63364	0.15773
2545.70508	0.15846
2543.77651	0.15906
2541.84795	0.15962
2539.91938	0.16033
2537.99082	0.16114
2536.06226	0.16196
2534.13369	0.16267
2532.20513	0.16325
2530.27656	0.16397
2528.34800	0.16494
2526.41943	0.16593
2524.49087	0.16679
2522.56230	0.16749
2520.63374	0.16812
2518.70518	0.16883
2516.77661	0.16973
2514.84805	0.17071
2512.91948	0.17160
2510.99092	0.17236
2509.06235	0.17313
2507.13379	0.17400
2505.20522	0.17492
2503.27666	0.17585
2501.34810	0.17682
2499.41953	0.17778
2497.49097	0.17866
2495.56240	0.17946
2493.63384	0.18032
2491.70527	0.18129
2489.77671	0.18226
2487.84814	0.18312
2485.91958	0.18395
2483.99102	0.18494
2482.06245	0.18604
2480.13389	0.18708
2478.20532	0.18809
2476.27676	0.18907
2474.34819	0.19005
2472.41963	0.19100
2470.49106	0.19186
2468.56250	0.19277
2466.63394	0.19385
2464.70537	0.19499
2462.77681	0.19609
2460.84824	0.19713
2458.91968	0.19810
2456.99111	0.19915
2455.06255	0.20023
2453.13398	0.20119
2451.20542	0.20212
2449.27686	0.20319
2447.34829	0.20434
2445.41973	0.20545
2443.49116	0.20646
2441.56260	0.20739
2439.63403	0.20832
2437.70547	0.20943
2435.77690	0.21072
2433.84834	0.21198
2431.91978	0.21313
2429.99121	0.21421
2428.06265	0.21522
2426.13408	0.21620
2424.20552	0.21727
2422.27695	0.21843
2420.34839	0.21962
2418.41982	0.22081
2416.49126	0.22198
2414.56270	0.22314
2412.63413	0.22437
2410.70557	0.22559
2408.77700	0.22677
2406.84844	0.22804
2404.91987	0.22931
2402.99131	0.23043
2401.06274	0.23155
2399.13418	0.23285
2397.20562	0.23429
2395.27705	0.23567
2393.34849	0.23695
2391.41992	0.23826
2389.49136	0.23966
2387.56279	0.24125
2385.63423	0.24310
2383.70566	0.24523
2381.77710	0.24785
2379.84854	0.25100
2377.91997	0.25435
2375.99141	0.25776
2374.06284	0.26166
2372.13428	0.26615
2370.20571	0.27101
2368.27715	0.27647
2366.34858	0.28236
2364.42002	0.28727
2362.49146	0.29062
2360.56289	0.29321
2358.63433	0.29454
2356.70576	0.29407
2354.77720	0.29298
2352.84863	0.29125
2350.92007	0.28845
2348.99150	0.28648
2347.06294	0.28706
2345.13437	0.29079
2343.20581	0.29589
2341.27725	0.29883
2339.34868	0.29973
2337.42012	0.30048
2335.49155	0.30183
2333.56299	0.30342
2331.63442	0.30486
2329.70586	0.30599
2327.77729	0.30688
2325.84873	0.30762
2323.92017	0.30828
2321.99160	0.30877
2320.06304	0.30889
2318.13447	0.30886
2316.20591	0.30898
2314.27734	0.30958
2312.34878	0.31082
2310.42021	0.31227
2308.49165	0.31333
2306.56309	0.31404
2304.63452	0.31481
2302.70596	0.31589
2300.77739	0.31730
2298.84883	0.31887
2296.92026	0.32038
2294.99170	0.32180
2293.06313	0.32327
2291.13457	0.32482
2289.20601	0.32638
2287.27744	0.32797
2285.34888	0.32961
2283.42031	0.33137
2281.49175	0.33334
2279.56318	0.33554
2277.63462	0.33778
2275.70605	0.33992
2273.77749	0.34198
2271.84893	0.34395
2269.92036	0.34589
2267.99180	0.34794
2266.06323	0.35019
2264.13467	0.35246
2262.20610	0.35460
2260.27754	0.35663
2258.34897	0.35868
2256.42041	0.36092
2254.49185	0.36318
2252.56328	0.36532
2250.63472	0.36746
2248.70615	0.36968
2246.77759	0.37185
2244.84902	0.37399
2242.92046	0.37614
2240.99189	0.37836
2239.06333	0.38062
2237.13477	0.38288
2235.20620	0.38519
2233.27764	0.38750
2231.34907	0.38973
2229.42051	0.39187
2227.49194	0.39397
2225.56338	0.39622
2223.63481	0.39866
2221.70625	0.40095
2219.77769	0.40301
2217.84912	0.40514
2215.92056	0.40740
2213.99199	0.40966
2212.06343	0.41186
2210.13486	0.41396
2208.20630	0.41606
2206.27773	0.41831
2204.34917	0.42054
2202.42061	0.42258
2200.49204	0.42460
2198.56348	0.42673
2196.63491	0.42879
2194.70635	0.43066
2192.77778	0.43245
2190.84922	0.43430
2188.92065	0.43623
2186.99209	0.43815
2185.06353	0.44003
2183.13496	0.44197
2181.20640	0.44382
2179.27783	0.44546
2177.34927	0.44713
2175.42070	0.44882
2173.49214	0.45022
2171.56357	0.45139
2169.63501	0.45268
2167.70645	0.45406
2165.77788	0.45539
2163.84932	0.45674
2161.92075	0.45805
2159.99219	0.45924
2158.06362	0.46037
2156.13506	0.46146
2154.20649	0.46242
2152.27793	0.46316
2150.34937	0.46371
2148.42080	0.46429
2146.49224	0.46495
2144.56367	0.46555
2142.63511	0.46606
2140.70654	0.46647
2138.77798	0.46671
2136.84941	0.46688
2134.92085	0.46709
2132.99229	0.46724
2131.06372	0.46722
2129.13516	0.46711
2127.20659	0.46689
2125.27803	0.46653
2123.34946	0.46614
2121.42090	0.46584
2119.49233	0.46544
2117.56377	0.46476
2115.63521	0.46389
2113.70664	0.46304
2111.77808	0.46220
2109.84951	0.46125
2107.92095	0.46024
2105.99238	0.45923
2104.06382	0.45814
2102.13525	0.45692
2100.20669	0.45571
2098.27812	0.45447
2096.34956	0.45312
2094.42100	0.45169
2092.49243	0.45016
2090.56387	0.44844
2088.63530	0.44658
2086.70674	0.44477
2084.77817	0.44298
2082.84961	0.44118
2080.92104	0.43930
2078.99248	0.43720
2077.06392	0.43498
2075.13535	0.43282
2073.20679	0.43066
2071.27822	0.42846
2069.34966	0.42620
2067.42109	0.42382
2065.49253	0.42144
2063.56396	0.41921
2061.63540	0.41695
2059.70684	0.41446
2057.77827	0.41187
2055.84971	0.40932
2053.92114	0.40675
2051.99258	0.40420
2050.06401	0.40166
2048.13545	0.39902
2046.20688	0.39634
2044.27832	0.39375
2042.34976	0.39115
2040.42119	0.38842
2038.49263	0.38559
2036.56406	0.38276
2034.63550	0.37993
2032.70693	0.37707
2030.77837	0.37425
2028.84980	0.37150
2026.92124	0.36876
2024.99268	0.36591
2023.06411	0.36301
2021.13555	0.36019
2019.20698	0.35753
2017.27842	0.35493
2015.34985	0.35218
2013.42129	0.34931
2011.49272	0.34640
2009.56416	0.34358
2007.63560	0.34088
2005.70703	0.33822
2003.77847	0.33550
2001.84990	0.33272
1999.92134	0.32994
1997.99277	0.32717
1996.06421	0.32448
1994.13564	0.32203
1992.20708	0.31972
1990.27852	0.31726
1988.34995	0.31473
1986.42139	0.31222
1984.49282	0.30970
1982.56426	0.30718
1980.63569	0.30469
1978.70713	0.30235
1976.77856	0.30006
1974.85000	0.29768
1972.92144	0.29534
1970.99287	0.29319
1969.06431	0.29117
1967.13574	0.28918
1965.20718	0.28706
1963.27861	0.28488
1961.35005	0.28283
1959.42148	0.28094
1957.49292	0.27912
1955.56436	0.27733
1953.63579	0.27555
1951.70723	0.27376
1949.77866	0.27206
1947.85010	0.27044
1945.92153	0.26889
1943.99297	0.26748
1942.06440	0.26607
1940.13584	0.26445
1938.20728	0.26280
1936.27871	0.26129
1934.35015	0.25991
1932.42158	0.25868
1930.49302	0.25752
1928.56445	0.25633
1926.63589	0.25514
1924.70732	0.25417
1922.77876	0.25330
1920.85020	0.25227
1918.92163	0.25132
1916.99307	0.25047
1915.06450	0.24940
1913.13594	0.24832
1911.20737	0.24760
1909.27881	0.24704
1907.35024	0.24629
1905.42168	0.24546
1903.49312	0.24485
1901.56455	0.24437
1899.63599	0.24386
1897.70742	0.24343
1895.77886	0.24314
1893.85029	0.24273
1891.92173	0.24212
1889.99316	0.24175
1888.06460	0.24154
1886.13604	0.24127
1884.20747	0.24102
1882.27891	0.24079
1880.35034	0.24057
1878.42178	0.24040
1876.49321	0.24033
1874.56465	0.24028
1872.63608	0.24033
1870.70752	0.24064
1868.77896	0.24138
1866.85039	0.24188
1864.92183	0.24172
1862.99326	0.24151
1861.06470	0.24159
1859.13613	0.24193
1857.20757	0.24230
1855.27900	0.24269
1853.35044	0.24313
1851.42187	0.24363
1849.49331	0.24423
1847.56475	0.24503
1845.63618	0.24601
1843.70762	0.24704
1841.77905	0.24768
1839.85049	0.24798
1837.92192	0.24868
1835.99336	0.24969
1834.06479	0.25068
1832.13623	0.25172
1830.20767	0.25322
1828.27910	0.25476
1826.35054	0.25578
1824.42197	0.25693
1822.49341	0.25810
1820.56484	0.25927
1818.63628	0.26059
1816.70771	0.26213
1814.77915	0.26378
1812.85059	0.26566
1810.92202	0.26786
1808.99346	0.27000
1807.06489	0.27179
1805.13633	0.27354
1803.20776	0.27581
1801.27920	0.27849
1799.35063	0.28133
1797.42207	0.28384
1795.49351	0.28628
1793.56494	0.28925
1791.63638	0.29312
1789.70781	0.29661
1787.77925	0.29907
1785.85068	0.30211
1783.92212	0.30587
1781.99355	0.30986
1780.06499	0.31414
1778.13643	0.31848
1776.20786	0.32244
1774.27930	0.32675
1772.35073	0.33289
1770.42217	0.33966
1768.49360	0.34507
1766.56504	0.35011
1764.63647	0.35525
1762.70791	0.36106
1760.77935	0.36863
1758.85078	0.37577
1756.92222	0.38292
1754.99365	0.39073
1753.06509	0.39767
1751.13652	0.40604
1749.20796	0.41712
1747.27939	0.42799
1745.35083	0.43714
1743.42227	0.44664
1741.49370	0.45711
1739.56514	0.46945
1737.63657	0.48181
1735.70801	0.49261
1733.77944	0.50938
1731.85088	0.52981
1729.92231	0.54552
1727.99375	0.56121
1726.06519	0.57795
1724.13662	0.59655
1722.20806	0.61684
1720.27949	0.63524
1718.35093	0.65661
1716.42236	0.68953
1714.49380	0.72116
1712.56523	0.74566
1710.63667	0.76885
1708.70811	0.79375
1706.77954	0.82226
1704.85098	0.85667
1702.92241	0.88700
1700.99385	0.91600
1699.06528	0.96021
1697.13672	1.00131
1695.20815	1.04257
1693.27959	1.08161
1691.35103	1.11204
1689.42246	1.14707
1687.49390	1.18390
1685.56533	1.21882
1683.63677	1.27427
1681.70820	1.33205
1679.77964	1.36737
1677.85107	1.40144
1675.92251	1.44035
1673.99395	1.48812
1672.06538	1.53029
1670.13682	1.57154
1668.20825	1.62623
1666.27969	1.66893
1664.35112	1.70318
1662.42256	1.74492
1660.49399	1.79203
1658.56543	1.82889
1656.63687	1.86080
1654.70830	1.89228
1652.77974	1.94533
1650.85117	1.99818
1648.92261	2.01892
1646.99404	2.05103
1645.06548	2.09013
1643.13691	2.11386
1641.20835	2.12606
1639.27979	2.13611
1637.35122	2.14225
1635.42266	2.14734
1633.49409	2.15001
1631.56553	2.14260
1629.63696	2.13071
1627.70840	2.10919
1625.77983	2.08323
1623.85127	2.04799
1621.92271	2.00414
1619.99414	1.96637
1618.06558	1.92916
1616.13701	1.87255
1614.20845	1.81390
1612.27988	1.77003
1610.35132	1.72335
1608.42275	1.67174
1606.49419	1.62031
1604.56562	1.57230
1602.63706	1.52507
1600.70850	1.47875
1598.77993	1.43651
1596.85137	1.39677
1594.92280	1.35746
1592.99424	1.31872
1591.06567	1.28293
1589.13711	1.24922
1587.20854	1.21755
1585.27998	1.18774
1583.35142	1.15936
1581.42285	1.13302
1579.49429	1.11000
1577.56572	1.08880
1575.63716	1.06175
1573.70859	1.03740
1571.78003	1.02154
1569.85146	1.00394
1567.92290	0.98302
1565.99434	0.96642
1564.06577	0.95225
1562.13721	0.94018
1560.20864	0.92968
1558.28008	0.90968
1556.35151	0.89090
1554.42295	0.87980
1552.49438	0.86862
1550.56582	0.85772
1548.63726	0.84692
1546.70869	0.83778
1544.78013	0.82960
1542.85156	0.82078
1540.92300	0.81076
1538.99443	0.79892
1537.06587	0.79129
1535.13730	0.78608
1533.20874	0.77889
1531.28018	0.77092
1529.35161	0.76523
1527.42305	0.75991
1525.49448	0.75409
1523.56592	0.74876
1521.63735	0.74325
1519.70879	0.73706
1517.78022	0.73171
1515.85166	0.72620
1513.92310	0.72088
1511.99453	0.71653
1510.06597	0.71300
1508.13740	0.71031
1506.20884	0.70565
1504.28027	0.70030
1502.35171	0.69692
1500.42314	0.69423
1498.49458	0.69153
1496.56602	0.68815
1494.63745	0.68446
1492.70889	0.68151
1490.78032	0.67921
1488.85176	0.67651
1486.92319	0.67308
1484.99463	0.66965
1483.06606	0.66659
1481.13750	0.66374
1479.20894	0.66106
1477.28037	0.65866
1475.35181	0.65628
1473.42324	0.65363
1471.49468	0.65000
1469.56611	0.64633
1467.63755	0.64349
1465.70898	0.64112
1463.78042	0.63877
1461.85186	0.63654
1459.92329	0.63470
1457.99473	0.63297
1456.06616	0.63036
1454.13760	0.62745
1452.20903	0.62526
1450.28047	0.62354
1448.35190	0.62204
1446.42334	0.62037
1444.49478	0.61854
1442.56621	0.61687
1440.63765	0.61547
1438.70908	0.61434
1436.78052	0.61330
1434.85195	0.61198
1432.92339	0.61055
1430.99482	0.60930
1429.06626	0.60801
1427.13770	0.60657
1425.20913	0.60512
1423.28057	0.60360
1421.35200	0.60223
1419.42344	0.60104
1417.49487	0.59929
1415.56631	0.59713
1413.63774	0.59537
1411.70918	0.59399
1409.78062	0.59269
1407.85205	0.59124
1405.92349	0.58976
1403.99492	0.58841
1402.06636	0.58718
1400.13779	0.58605
1398.20923	0.58494
1396.28066	0.58370
1394.35210	0.58220
1392.42354	0.58049
1390.49497	0.57908
1388.56641	0.57812
1386.63784	0.57708
1384.70928	0.57561
1382.78071	0.57428
1380.85215	0.57332
1378.92358	0.57250
1376.99502	0.57172
1375.06646	0.57105
1373.13789	0.57023
1371.20933	0.56915
1369.28076	0.56809
1367.35220	0.56706
1365.42363	0.56610
1363.49507	0.56533
1361.56650	0.56454
1359.63794	0.56356
1357.70937	0.56258
1355.78081	0.56164
1353.85225	0.56071
1351.92368	0.55985
1349.99512	0.55900
1348.06655	0.55807
1346.13799	0.55715
1344.20942	0.55633
1342.28086	0.55553
1340.35229	0.55476
1338.42373	0.55389
1336.49517	0.55293
1334.56660	0.55202
1332.63804	0.55111
1330.70947	0.55024
1328.78091	0.54944
1326.85234	0.54856
1324.92378	0.54758
1322.99521	0.54670
1321.06665	0.54604
1319.13809	0.54548
1317.20952	0.54472
1315.28096	0.54375
1313.35239	0.54280
1311.42383	0.54198
1309.49526	0.54125
1307.56670	0.54051
1305.63813	0.53967
1303.70957	0.53879
1301.78101	0.53800
1299.85244	0.53734
1297.92388	0.53676
1295.99531	0.53613
1294.06675	0.53538
1292.13818	0.53455
1290.20962	0.53387
1288.28105	0.53336
1286.35249	0.53290
1284.42393	0.53258
1282.49536	0.53238
1280.56680	0.53195
1278.63823	0.53124
1276.70967	0.53053
1274.78110	0.52987
1272.85254	0.52932
1270.92397	0.52893
1268.99541	0.52857
1267.06685	0.52818
1265.13828	0.52782
1263.20972	0.52758
1261.28115	0.52733
1259.35259	0.52704
1257.42402	0.52670
1255.49546	0.52641
1253.56689	0.52630
1251.63833	0.52618
1249.70977	0.52586
1247.78120	0.52550
1245.85264	0.52535
1243.92407	0.52527
1241.99551	0.52500
1240.06694	0.52450
1238.13838	0.52395
1236.20981	0.52353
1234.28125	0.52320
1232.35269	0.52283
1230.42412	0.52233
1228.49556	0.52165
1226.56699	0.52087
1224.63843	0.52009
1222.70986	0.51944
1220.78130	0.51895
1218.85273	0.51844
1216.92417	0.51782
1214.99561	0.51717
1213.06704	0.51659
1211.13848	0.51602
1209.20991	0.51542
1207.28135	0.51492
1205.35278	0.51448
1203.42422	0.51395
1201.49565	0.51333
1199.56709	0.51270
1197.63853	0.51213
1195.70996	0.51171
1193.78140	0.51139
1191.85283	0.51098
1189.92427	0.51041
1187.99570	0.50994
1186.06714	0.50973
1184.13857	0.50954
1182.21001	0.50925
1180.28145	0.50910
1178.35288	0.50927
1176.42432	0.50964
1174.49575	0.51009
1172.56719	0.51052
1170.63862	0.51087
1168.71006	0.51119
1166.78149	0.51144
1164.85293	0.51162
1162.92437	0.51176
1160.99580	0.51173
1159.06724	0.51144
1157.13867	0.51084
1155.21011	0.50990
1153.28154	0.50856
1151.35298	0.50689
1149.42441	0.50512
1147.49585	0.50324
1145.56729	0.50120
1143.63872	0.49908
1141.71016	0.49680
1139.78159	0.49436
1137.85303	0.49199
1135.92446	0.48962
1133.99590	0.48735
1132.06733	0.48544
1130.13877	0.48381
1128.21021	0.48231
1126.28164	0.48086
1124.35308	0.47946
1122.42451	0.47839
1120.49595	0.47772
1118.56738	0.47731
1116.63882	0.47709
1114.71025	0.47707
1112.78169	0.47727
1110.85312	0.47777
1108.92456	0.47857
1106.99600	0.47955
1105.06743	0.48073
1103.13887	0.48222
1101.21030	0.48404
1099.28174	0.48623
1097.35317	0.48878
1095.42461	0.49165
1093.49604	0.49502
1091.56748	0.49911
1089.63892	0.50392
1087.71035	0.50922
1085.78179	0.51490
1083.85322	0.52099
1081.92466	0.52731
1079.99609	0.53320
1078.06753	0.53755
1076.13896	0.53918
1074.21040	0.53756
1072.28184	0.53334
1070.35327	0.52768
1068.42471	0.52127
1066.49614	0.51452
1064.56758	0.50818
1062.63901	0.50265
1060.71045	0.49775
1058.78188	0.49344
1056.85332	0.48971
1054.92476	0.48636
1052.99619	0.48335
1051.06763	0.48085
1049.13906	0.47887
1047.21050	0.47722
1045.28193	0.47575
1043.35337	0.47443
1041.42480	0.47333
1039.49624	0.47255
1037.56768	0.47199
1035.63911	0.47178
1033.71055	0.47194
1031.78198	0.47214
1029.85342	0.47235
1027.92485	0.47273
1025.99629	0.47325
1024.06772	0.47376
1022.13916	0.47416
1020.21060	0.47479
1018.28203	0.47591
1016.35347	0.47732
1014.42490	0.47876
1012.49634	0.48004
1010.56777	0.48135
1008.63921	0.48299
1006.71064	0.48497
1004.78208	0.48718
1002.85352	0.48963
1000.92495	0.49238
998.99639	0.49528
997.06782	0.49845
995.13926	0.50207
993.21069	0.50588
991.28213	0.50927
989.35356	0.51183
987.42500	0.51357
985.49644	0.51485
983.56787	0.51595
981.63931	0.51701
979.71074	0.51846
977.78218	0.52049
975.85361	0.52288
973.92505	0.52558
971.99648	0.52875
970.06792	0.53236
968.13936	0.53632
966.21079	0.54059
964.28223	0.54507
962.35366	0.54983
960.42510	0.55501
958.49653	0.56051
956.56797	0.56624
954.63940	0.57220
952.71084	0.57834
950.78228	0.58459
948.85371	0.59099
946.92515	0.59739
944.99658	0.60345
943.06802	0.60929
941.13945	0.61533
939.21089	0.62147
937.28232	0.62715
935.35376	0.63237
933.42520	0.63781
931.49663	0.64340
929.56807	0.64879
927.63950	0.65447
925.71094	0.66030
923.78237	0.66589
921.85381	0.67206
919.92524	0.67899
917.99668	0.68612
916.06812	0.69353
914.13955	0.70109
912.21099	0.70893
910.28242	0.71722
908.35386	0.72552
906.42529	0.73388
904.49673	0.74279
902.56816	0.75206
900.63960	0.76163
898.71104	0.77138
896.78247	0.78048
894.85391	0.78928
892.92534	0.79875
890.99678	0.80875
889.06821	0.81913
887.13965	0.82992
885.21108	0.84110
883.28252	0.85286
881.35396	0.86468
879.42539	0.87659
877.49683	0.88872
875.56826	0.89945
873.63970	0.90898
871.71113	0.91967
869.78257	0.93145
867.85400	0.94315
865.92544	0.95439
863.99687	0.96522
862.06831	0.97663
860.13975	0.98840
858.21118	0.99962
856.28262	1.01123
854.35405	1.02397
852.42549	1.03612
850.49692	1.04659
848.56836	1.05652
846.63979	1.06749
844.71123	1.07968
842.78267	1.09102
840.85410	1.10227
838.92554	1.11546
836.99697	1.12778
835.06841	1.13753
833.13984	1.14758
831.21128	1.15866
829.28271	1.17040
827.35415	1.18332
825.42559	1.19349
823.49702	1.19942
821.56846	1.20331
819.63989	1.20730
817.71133	1.21801
815.78276	1.23582
813.85420	1.24919
811.92563	1.25779
809.99707	1.27024
808.06851	1.27860
806.13994	1.28216
804.21138	1.29204
802.28281	1.30712
800.35425	1.32399
798.42568	1.34565
796.49712	1.36926
794.56855	1.37310
792.63999	1.35094
790.71143	1.34226
788.78286	1.37341
786.85430	1.41070
784.92573	1.43255
782.99717	1.44721
781.06860	1.43449
779.14004	1.42513
777.21147	1.44177
775.28291	1.46719
773.35435	1.51439
771.42578	1.61964
769.49722	1.75392
767.56865	1.74180
765.64009	1.59020
763.71152	1.44666
761.78296	1.32288
759.85439	1.23885
757.92583	1.22021
755.99727	1.25808
754.06870	1.29022
752.14014	1.26893
750.21157	1.32310
748.28301	1.44295
746.35444	1.45433
744.42588	1.47211
742.49731	1.34619
740.56875	1.12694
738.64019	1.12465
736.71162	1.26911
734.78306	1.08289
732.85449	0.85956
730.92593	0.72182
728.99736	0.58193
727.06880	0.50563
725.14023	0.51539
723.21167	0.52570
721.28311	0.58995
719.35454	0.94433
717.42598	0.85467
715.49741	0.27791
713.56885	-0.05853
711.64028	-0.25117
709.71172	-0.29734
707.78315	-0.19723
705.85459	-0.14225
703.92603	-0.05485
701.99746	-0.00739
700.06890	-0.04298
698.14033	-0.02543
696.21177	0.07017
694.28320	0.15409
692.35464	0.15794
690.42607	0.15832
688.49751	0.12817
686.56895	0.08976
684.64038	0.11503
682.71182	0.15045
680.78325	0.16906
678.85469	0.21770
676.92612	0.27230
674.99756	0.24124
673.06899	0.12739
671.14043	0.05730
669.21187	0.08120
667.28330	0.13037
665.35474	0.11437
663.42617	0.04678
661.49761	0.05328
659.56904	0.08410
657.64048	0.06073
655.71191	0.02804
653.78335	0.06891
651.85479	0.16082
649.92622	0.23864
647.99766	0.21382
646.06909	0.15163
644.14053	0.21891
642.21196	0.33893
640.28340	0.27048
638.35483	0.14546
636.42627	0.08742
634.49771	0.10417
632.56914	0.14847
630.64058	0.14070
628.71201	0.09733
626.78345	0.08990
624.85488	0.11357
622.92632	0.12978
620.99775	0.12502
619.06919	0.14332
617.14062	0.15279
615.21206	0.13175
613.28350	0.11176
611.35493	0.10103
609.42637	0.09399
607.49780	0.08267
605.56924	0.05458
603.64067	0.04271
601.71211	0.09438
599.78354	0.12778
597.85498	0.10872
595.92642	0.17975
593.99785	0.33609
592.06929	0.35273
590.14072	0.21789
588.21216	0.08701
586.28359	0.04703
584.35503	0.06500
582.42646	0.09454
580.49790	0.20182
578.56934	0.39096
576.64077	0.56342
574.71221	0.50565
572.78364	0.28055
570.85508	0.13171
568.92651	0.06990
566.99795	0.07288
565.06938	0.12698
563.14082	0.15822
561.21226	0.12859
559.28369	0.11169
557.35513	0.12163
555.42656	0.04528
553.49800	0.02232
551.56943	0.14432
549.64087	0.30313
547.71230	0.34474
545.78374	0.28597
543.85518	0.21102
541.92661	0.16172
539.99805	0.14408
538.06948	0.18512
536.14092	0.22429
534.21235	0.12565
532.28379	0.05556
530.35522	0.09385
528.42666	0.16458
526.49810	0.17740
524.56953	0.16729
522.64097	0.20862
520.71240	0.28680
518.78384	0.35414
516.85527	0.35847
514.92671	0.27385
512.99814	0.17625
511.06958	0.12129
509.14102	0.10251
507.21245	0.11597
505.28389	0.16790
503.35532	0.21222
501.42676	0.17173
499.49819	0.12849
