3997.91411	0.06861
3995.98555	0.06915
3994.05698	0.06996
3992.12842	0.07037
3990.19985	0.07032
3988.27129	0.07034
3986.34272	0.07064
3984.41416	0.07101
3982.48560	0.07128
3980.55703	0.07151
3978.62847	0.07162
3976.69990	0.07177
3974.77134	0.07221
3972.84277	0.07265
3970.91421	0.07266
3968.98564	0.07248
3967.05708	0.07253
3965.12852	0.07261
3963.19995	0.07278
3961.27139	0.07323
3959.34282	0.07358
3957.41426	0.07369
3955.48569	0.07377
3953.55713	0.07379
3951.62856	0.07375
3949.70000	0.07391
3947.77144	0.07433
3945.84287	0.07460
3943.91431	0.07443
3941.98574	0.07395
3940.05718	0.07349
3938.12861	0.07324
3936.20005	0.07323
3934.27148	0.07350
3932.34292	0.07394
3930.41436	0.07432
3928.48579	0.07443
3926.55723	0.07410
3924.62866	0.07371
3922.70010	0.07369
3920.77153	0.07373
3918.84297	0.07366
3916.91440	0.07360
3914.98584	0.07355
3913.05728	0.07344
3911.12871	0.07330
3909.20015	0.07316
3907.27158	0.07320
3905.34302	0.07362
3903.41445	0.07438
3901.48589	0.07486
3899.55732	0.07461
3897.62876	0.07428
3895.70020	0.07399
3893.77163	0.07347
3891.84307	0.07311
3889.91450	0.07318
3887.98594	0.07331
3886.05737	0.07364
3884.12881	0.07404
3882.20024	0.07395
3880.27168	0.07398
3878.34312	0.07435
3876.41455	0.07455
3874.48599	0.07489
3872.55742	0.07523
3870.62886	0.07511
3868.70029	0.07544
3866.77173	0.07615
3864.84316	0.07626
3862.91460	0.07615
3860.98604	0.07642
3859.05747	0.07684
3857.12891	0.07719
3855.20034	0.07751
3853.27178	0.07781
3851.34321	0.07841
3849.41465	0.07892
3847.48608	0.07927
3845.55752	0.07983
3843.62896	0.08064
3841.70039	0.08146
3839.77183	0.08259
3837.84326	0.08429
3835.91470	0.08494
3833.98613	0.08446
3832.05757	0.08455
3830.12900	0.08531
3828.20044	0.08602
3826.27187	0.08670
3824.34331	0.08755
3822.41475	0.08865
3820.48618	0.09043
3818.55762	0.09169
3816.62905	0.09161
3814.70049	0.09158
3812.77192	0.09201
3810.84336	0.09268
3808.91479	0.09379
3806.98623	0.09544
3805.05767	0.09713
3803.12910	0.09851
3801.20054	0.10015
3799.27197	0.10163
3797.34341	0.10245
3795.41484	0.10362
3793.48628	0.10492
3791.55771	0.10596
3789.62915	0.10695
3787.70059	0.10790
3785.77202	0.10901
3783.84346	0.11038
3781.91489	0.11180
3779.98633	0.11369
3778.05776	0.11619
3776.12920	0.11792
3774.20063	0.11893
3772.27207	0.12027
3770.34351	0.12222
3768.41494	0.12435
3766.48638	0.12614
3764.55781	0.12807
3762.62925	0.13005
3760.70068	0.13206
3758.77212	0.13493
3756.84355	0.13808
3754.91499	0.14020
3752.98643	0.14179
3751.05786	0.14438
3749.12930	0.14860
3747.20073	0.15192
3745.27217	0.15476
3743.34360	0.15885
3741.41504	0.16260
3739.48647	0.16567
3737.55791	0.16931
3735.62935	0.17441
3733.70078	0.18141
3731.77222	0.18791
3729.84365	0.19266
3727.91509	0.19681
3725.98652	0.20182
3724.05796	0.20804
3722.12939	0.21493
3720.20083	0.22216
3718.27227	0.22905
3716.34370	0.23571
3714.41514	0.24248
3712.48657	0.25104
3710.55801	0.26479
3708.62944	0.28088
3706.70088	0.29341
3704.77231	0.30462
3702.84375	0.31804
3700.91519	0.33586
3698.98662	0.35516
3697.05806	0.37294
3695.12949	0.39167
3693.20093	0.41154
3691.27236	0.43285
3689.34380	0.46116
3687.41523	0.49740
3685.48667	0.52882
3683.55811	0.55491
3681.62954	0.58240
3679.70098	0.61378
3677.77241	0.64705
3675.84385	0.68606
3673.91528	0.74034
3671.98672	0.78559
3670.05815	0.82544
3668.12959	0.88035
3666.20103	0.92964
3664.27246	0.97026
3662.34390	1.01409
3660.41533	1.06140
3658.48677	1.10747
3656.55820	1.15604
3654.62964	1.21052
3652.70107	1.25589
3650.77251	1.29425
3648.84395	1.34869
3646.91538	1.41988
3644.98682	1.47241
3643.05825	1.51140
3641.12969	1.55110
3639.20112	1.59589
3637.27256	1.64084
3635.34399	1.68320
3633.41543	1.72505
3631.48687	1.76479
3629.55830	1.80556
3627.62974	1.86030
3625.70117	1.91181
3623.77261	1.94533
3621.84404	1.97620
3619.91548	2.01167
3617.98691	2.05674
3616.05835	2.10091
3614.12979	2.13693
3612.20122	2.17544
3610.27266	2.21496
3608.34409	2.25466
3606.41553	2.29748
3604.48696	2.33700
3602.55840	2.37072
3600.62983	2.40683
3598.70127	2.44768
3596.77271	2.48908
3594.84414	2.53100
3592.91558	2.57246
3590.98701	2.60991
3589.05845	2.64403
3587.12988	2.68510
3585.20132	2.73282
3583.27275	2.77427
3581.34419	2.81100
3579.41562	2.84932
3577.48706	2.89079
3575.55850	2.93374
3573.62993	2.97727
3571.70137	3.01860
3569.77280	3.05766
3567.84424	3.09889
3565.91567	3.15067
3563.98711	3.20199
3562.05854	3.24167
3560.12998	3.28144
3558.20142	3.32773
3556.27285	3.37615
3554.34429	3.42036
3552.41572	3.46272
3550.48716	3.50663
3548.55859	3.55105
3546.63003	3.59509
3544.70146	3.64133
3542.77290	3.68993
3540.84434	3.73837
3538.91577	3.78530
3536.98721	3.82960
3535.05864	3.87307
3533.13008	3.91515
3531.20151	3.95845
3529.27295	4.00636
3527.34438	4.05853
3525.41582	4.10885
3523.48726	4.15311
3521.55869	4.20043
3519.63013	4.25378
3517.70156	4.30696
3515.77300	4.35684
3513.84443	4.40294
3511.91587	4.44595
3509.98730	4.49153
3508.05874	4.54305
3506.13018	4.59411
3504.20161	4.64097
3502.27305	4.68603
3500.34448	4.73109
3498.41592	4.77521
3496.48735	4.81623
3494.55879	4.85544
3492.63022	4.90055
3490.70166	4.95515
3488.77310	5.01465
3486.84453	5.07104
3484.91597	5.11828
3482.98740	5.16053
3481.05884	5.20345
3479.13027	5.24895
3477.20171	5.29847
3475.27314	5.34526
3473.34458	5.39263
3471.41602	5.45071
3469.48745	5.50786
3467.55889	5.55750
3465.63032	5.60720
3463.70176	5.65694
3461.77319	5.70310
3459.84463	5.74413
3457.91606	5.78906
3455.98750	5.85534
3454.05894	5.93107
3452.13037	5.99052
3450.20181	6.02791
3448.27324	6.05257
3446.34468	6.08438
3444.41611	6.13118
3442.48755	6.19588
3440.55898	6.26569
3438.63042	6.31227
3436.70186	6.33040
3434.77329	6.35396
3432.84473	6.40727
3430.91616	6.46321
3428.98760	6.51133
3427.05903	6.57027
3425.13047	6.63775
3423.20190	6.69278
3421.27334	6.74312
3419.34478	6.80358
3417.41621	6.86850
3415.48765	6.92324
3413.55908	6.95519
3411.63052	6.97751
3409.70195	7.00279
3407.77339	7.04365
3405.84482	7.10080
3403.91626	7.17876
3401.98770	7.25354
3400.05913	7.29197
3398.13057	7.32536
3396.20200	7.36563
3394.27344	7.39663
3392.34487	7.44062
3390.41631	7.52074
3388.48774	7.57827
3386.55918	7.56190
3384.63062	7.51326
3382.70205	7.51339
3380.77349	7.55249
3378.84492	7.59664
3376.91636	7.65570
3374.98779	7.71380
3373.05923	7.78121
3371.13066	7.78864
3369.20210	7.71366
3367.27354	7.67229
3365.34497	7.74433
3363.41641	7.86700
3361.48784	7.89077
3359.55928	7.83043
3357.63071	7.79143
3355.70215	7.81966
3353.77358	7.87971
3351.84502	7.93852
3349.91646	7.96646
3347.98789	7.96619
3346.05933	7.96704
3344.13076	7.95261
3342.20220	7.95181
3340.27363	7.99441
3338.34507	8.03950
3336.41650	8.02438
3334.48794	8.00042
3332.55937	8.01736
3330.63081	8.04193
3328.70225	8.06603
3326.77368	8.13913
3324.84512	8.19338
3322.91655	8.10302
3320.98799	8.02503
3319.05942	8.05345
3317.13086	8.09099
3315.20229	8.09530
3313.27373	8.08472
3311.34517	8.07583
3309.41660	8.09280
3307.48804	8.08205
3305.55947	8.01340
3303.63091	7.97761
3301.70234	8.01115
3299.77378	8.09568
3297.84521	8.15084
3295.91665	8.09644
3293.98809	7.99880
3292.05952	7.93144
3290.13096	7.89267
3288.20239	7.92709
3286.27383	8.02974
3284.34526	8.13510
3282.41670	8.24369
3280.48813	8.26641
3278.55957	8.16602
3276.63101	8.01523
3274.70244	7.91814
3272.77388	7.96896
3270.84531	8.08648
3268.91675	8.12094
3266.98818	8.07631
3265.05962	8.04300
3263.13105	8.07503
3261.20249	8.14195
3259.27393	8.15306
3257.34536	8.17384
3255.41680	8.25369
3253.48823	8.29554
3251.55967	8.28124
3249.63110	8.21453
3247.70254	8.13913
3245.77397	8.13364
3243.84541	8.10725
3241.91685	7.98285
3239.98828	7.93208
3238.05972	8.03303
3236.13115	8.16004
3234.20259	8.18941
3232.27402	8.11062
3230.34546	8.02732
3228.41689	8.06344
3226.48833	8.19447
3224.55977	8.25018
3222.63120	8.17009
3220.70264	8.03462
3218.77407	7.92936
3216.84551	7.84094
3214.91694	7.74308
3212.98838	7.69235
3211.05981	7.71302
3209.13125	7.79421
3207.20269	7.84195
3205.27412	7.76323
3203.34556	7.68581
3201.41699	7.67904
3199.48843	7.64033
3197.55986	7.57895
3195.63130	7.56538
3193.70273	7.56219
3191.77417	7.51389
3189.84561	7.42075
3187.91704	7.34222
3185.98848	7.31112
3184.05991	7.27746
3182.13135	7.23123
3180.20278	7.20781
3178.27422	7.15552
3176.34565	7.06246
3174.41709	7.01013
3172.48853	6.99391
3170.55996	6.94320
3168.63140	6.87387
3166.70283	6.82979
3164.77427	6.77006
3162.84570	6.68790
3160.91714	6.63723
3158.98857	6.60932
3157.06001	6.56515
3155.13145	6.49625
3153.20288	6.40903
3151.27432	6.33779
3149.34575	6.29095
3147.41719	6.22424
3145.48862	6.13920
3143.56006	6.05604
3141.63149	5.96770
3139.70293	5.88736
3137.77437	5.82717
3135.84580	5.77001
3133.91724	5.70042
3131.98867	5.62826
3130.06011	5.56214
3128.13154	5.49135
3126.20298	5.41276
3124.27441	5.33358
3122.34585	5.25580
3120.41729	5.18301
3118.48872	5.11760
3116.56016	5.05270
3114.63159	4.98180
3112.70303	4.91024
3110.77446	4.84309
3108.84590	4.77405
3106.91733	4.69962
3104.98877	4.62618
3103.06021	4.55620
3101.13164	4.48443
3099.20308	4.41390
3097.27451	4.35020
3095.34595	4.28988
3093.41738	4.22781
3091.48882	4.16240
3089.56025	4.09539
3087.63169	4.02736
3085.70312	3.95988
3083.77456	3.89660
3081.84600	3.83677
3079.91743	3.77620
3077.98887	3.71257
3076.06030	3.64842
3074.13174	3.58668
3072.20317	3.52695
3070.27461	3.46910
3068.34604	3.41171
3066.41748	3.35355
3064.48892	3.29760
3062.56035	3.24430
3060.63179	3.19050
3058.70322	3.13595
3056.77466	3.08224
3054.84609	3.02888
3052.91753	2.97566
3050.98896	2.92375
3049.06040	2.87250
3047.13184	2.82179
3045.20327	2.77300
3043.27471	2.72543
3041.34614	2.67763
3039.41758	2.62969
3037.48901	2.58238
3035.56045	2.53631
3033.63188	2.49159
3031.70332	2.44764
3029.77476	2.40422
3027.84619	2.36132
3025.91763	2.31910
3023.98906	2.27778
3022.06050	2.23682
3020.13193	2.19635
3018.20337	2.15727
3016.27480	2.11916
3014.34624	2.08094
3012.41768	2.04225
3010.48911	2.00403
3008.56055	1.96769
3006.63198	1.93253
3004.70342	1.89697
3002.77485	1.86143
3000.84629	1.82693
2998.91772	1.79338
2996.98916	1.76037
2995.06060	1.72748
2993.13203	1.69475
2991.20347	1.66286
2989.27490	1.63168
2987.34634	1.60087
2985.41777	1.57076
2983.48921	1.54114
2981.56064	1.51158
2979.63208	1.48257
2977.70352	1.45441
2975.77495	1.42683
2973.84639	1.39967
2971.91782	1.37265
2969.98926	1.34572
2968.06069	1.31907
2966.13213	1.29323
2964.20356	1.26870
2962.27500	1.24492
2960.34644	1.22113
2958.41787	1.19722
2956.48931	1.17374
2954.56074	1.15142
2952.63218	1.12976
2950.70361	1.10810
2948.77505	1.08684
2946.84648	1.06618
2944.91792	1.04572
2942.98936	1.02534
2941.06079	1.00568
2939.13223	0.98677
2937.20366	0.96750
2935.27510	0.94783
2933.34653	0.92949
2931.41797	0.91290
2929.48940	0.89643
2927.56084	0.87973
2925.63228	0.86365
2923.70371	0.84787
2921.77515	0.83197
2919.84658	0.81611
2917.91802	0.80044
2915.98945	0.78508
2914.06089	0.76982
2912.13232	0.75476
2910.20376	0.74044
2908.27520	0.72691
2906.34663	0.71354
2904.41807	0.69995
2902.48950	0.68663
2900.56094	0.67409
2898.63237	0.66210
2896.70381	0.65023
2894.77524	0.63850
2892.84668	0.62699
2890.91812	0.61568
2888.98955	0.60465
2887.06099	0.59385
2885.13242	0.58321
2883.20386	0.57262
2881.27529	0.56213
2879.34673	0.55189
2877.41816	0.54199
2875.48960	0.53242
2873.56104	0.52299
2871.63247	0.51355
2869.70391	0.50415
2867.77534	0.49507
2865.84678	0.48637
2863.91821	0.47779
2861.98965	0.46930
2860.06108	0.46098
2858.13252	0.45293
2856.20396	0.44530
2854.27539	0.43815
2852.34683	0.43120
2850.41826	0.42395
2848.48970	0.41636
2846.56113	0.40888
2844.63257	0.40191
2842.70400	0.39549
2840.77544	0.38936
2838.84687	0.38356
2836.91831	0.37823
2834.98975	0.37306
2833.06118	0.36770
2831.13262	0.36217
2829.20405	0.35662
2827.27549	0.35115
2825.34692	0.34571
2823.41836	0.34033
2821.48979	0.33511
2819.56123	0.32993
2817.63267	0.32471
2815.70410	0.31960
2813.77554	0.31472
2811.84697	0.30996
2809.91841	0.30517
2807.98984	0.30048
2806.06128	0.29604
2804.13271	0.29171
2802.20415	0.28743
2800.27559	0.28327
2798.34702	0.27916
2796.41846	0.27503
2794.48989	0.27093
2792.56133	0.26704
2790.63276	0.26333
2788.70420	0.25973
2786.77563	0.25620
2784.84707	0.25269
2782.91851	0.24923
2780.98994	0.24590
2779.06138	0.24258
2777.13281	0.23918
2775.20425	0.23586
2773.27568	0.23283
2771.34712	0.22997
2769.41855	0.22700
2767.48999	0.22388
2765.56143	0.22085
2763.63286	0.21799
2761.70430	0.21520
2759.77573	0.21261
2757.84717	0.21014
2755.91860	0.20766
2753.99004	0.20529
2752.06147	0.20289
2750.13291	0.20048
2748.20435	0.19814
2746.27578	0.19572
2744.34722	0.19335
2742.41865	0.19119
2740.49009	0.18917
2738.56152	0.18717
2736.63296	0.18521
2734.70439	0.18338
2732.77583	0.18158
2730.84727	0.17968
2728.91870	0.17768
2726.99014	0.17572
2725.06157	0.17391
2723.13301	0.17235
2721.20444	0.17090
2719.27588	0.16932
2717.34731	0.16766
2715.41875	0.16604
2713.49019	0.16448
2711.56162	0.16292
2709.63306	0.16150
2707.70449	0.16025
2705.77593	0.15903
2703.84736	0.15774
2701.91880	0.15642
2699.99023	0.15517
2698.06167	0.15403
2696.13311	0.15293
2694.20454	0.15175
2692.27598	0.15052
2690.34741	0.14940
2688.41885	0.14840
2686.49028	0.14736
2684.56172	0.14630
2682.63315	0.14544
2680.70459	0.14486
2678.77603	0.14435
2676.84746	0.14362
2674.91890	0.14263
2672.99033	0.14160
2671.06177	0.14081
2669.13320	0.14018
2667.20464	0.13955
2665.27607	0.13896
2663.34751	0.13836
2661.41895	0.13770
2659.49038	0.13711
2657.56182	0.13663
2655.63325	0.13610
2653.70469	0.13549
2651.77612	0.13487
2649.84756	0.13437
2647.91899	0.13410
2645.99043	0.13391
2644.06187	0.13355
2642.13330	0.13307
2640.20474	0.13276
2638.27617	0.13272
2636.34761	0.13270
2634.41904	0.13250
2632.49048	0.13226
2630.56191	0.13213
2628.63335	0.13201
2626.70479	0.13176
2624.77622	0.13152
2622.84766	0.13138
2620.91909	0.13119
2618.99053	0.13111
2617.06196	0.13133
2615.13340	0.13158
2613.20483	0.13167
2611.27627	0.13167
2609.34771	0.13169
2607.41914	0.13167
2605.49058	0.13170
2603.56201	0.13191
2601.63345	0.13220
2599.70488	0.13243
2597.77632	0.13263
2595.84775	0.13280
2593.91919	0.13293
2591.99062	0.13305
2590.06206	0.13319
2588.13350	0.13337
2586.20493	0.13368
2584.27637	0.13409
2582.34780	0.13457
2580.41924	0.13510
2578.49067	0.13555
2576.56211	0.13590
2574.63354	0.13632
2572.70498	0.13683
2570.77642	0.13735
2568.84785	0.13781
2566.91929	0.13823
2564.99072	0.13872
2563.06216	0.13923
2561.13359	0.13971
2559.20503	0.14026
2557.27646	0.14088
2555.34790	0.14152
2553.41934	0.14216
2551.49077	0.14279
2549.56221	0.14349
2547.63364	0.14417
2545.70508	0.14474
2543.77651	0.14528
2541.84795	0.14601
2539.91938	0.14690
2537.99082	0.14767
2536.06226	0.14833
2534.13369	0.14902
2532.20513	0.14969
2530.27656	0.15039
2528.34800	0.15129
2526.41943	0.15217
2524.49087	0.15295
2522.56230	0.15376
2520.63374	0.15455
2518.70518	0.15515
2516.77661	0.15577
2514.84805	0.15668
2512.91948	0.15777
2510.99092	0.15874
2509.06235	0.15960
2507.13379	0.16044
2505.20522	0.16124
2503.27666	0.16209
2501.34810	0.16304
2499.41953	0.16400
2497.49097	0.16487
2495.56240	0.16567
2493.63384	0.16650
2491.70527	0.16743
2489.77671	0.16833
2487.84814	0.16915
2485.91958	0.17009
2483.99102	0.17125
2482.06245	0.17231
2480.13389	0.17319
2478.20532	0.17418
2476.27676	0.17527
2474.34819	0.17624
2472.41963	0.17718
2470.49106	0.17809
2468.56250	0.17903
2466.63394	0.18011
2464.70537	0.18119
2462.77681	0.18210
2460.84824	0.18296
2458.91968	0.18393
2456.99111	0.18502
2455.06255	0.18613
2453.13398	0.18723
2451.20542	0.18839
2449.27686	0.18946
2447.34829	0.19041
2445.41973	0.19142
2443.49116	0.19261
2441.56260	0.19374
2439.63403	0.19471
2437.70547	0.19585
2435.77690	0.19722
2433.84834	0.19850
2431.91978	0.19963
2429.99121	0.20071
2428.06265	0.20173
2426.13408	0.20271
2424.20552	0.20374
2422.27695	0.20494
2420.34839	0.20626
2418.41982	0.20756
2416.49126	0.20873
2414.56270	0.20992
2412.63413	0.21126
2410.70557	0.21257
2408.77700	0.21371
2406.84844	0.21491
2404.91987	0.21625
2402.99131	0.21753
2401.06274	0.21872
2399.13418	0.21999
2397.20562	0.22132
2395.27705	0.22266
2393.34849	0.22399
2391.41992	0.22537
2389.49136	0.22687
2387.56279	0.22854
2385.63423	0.23055
2383.70566	0.23326
2381.77710	0.23684
2379.84854	0.24096
2377.91997	0.24528
2375.99141	0.25012
2374.06284	0.25598
2372.13428	0.26249
2370.20571	0.26921
2368.27715	0.27661
2366.34858	0.28439
2364.42002	0.29097
2362.49146	0.29595
2360.56289	0.29897
2358.63433	0.29864
2356.70576	0.29643
2354.77720	0.29398
2352.84863	0.29055
2350.92007	0.28607
2348.99150	0.28311
2347.06294	0.28393
2345.13437	0.28921
2343.20581	0.29642
2341.27725	0.30086
2339.34868	0.30193
2337.42012	0.30157
2335.49155	0.30169
2333.56299	0.30259
2331.63442	0.30394
2329.70586	0.30554
2327.77729	0.30668
2325.84873	0.30690
2323.92017	0.30665
2321.99160	0.30602
2320.06304	0.30507
2318.13447	0.30413
2316.20591	0.30340
2314.27734	0.30350
2312.34878	0.30458
2310.42021	0.30573
2308.49165	0.30620
2306.56309	0.30625
2304.63452	0.30651
2302.70596	0.30734
2300.77739	0.30867
2298.84883	0.31001
2296.92026	0.31128
2294.99170	0.31263
2293.06313	0.31401
2291.13457	0.31527
2289.20601	0.31653
2287.27744	0.31786
2285.34888	0.31927
2283.42031	0.32091
2281.49175	0.32287
2279.56318	0.32515
2277.63462	0.32758
2275.70605	0.32993
2273.77749	0.33207
2271.84893	0.33403
2269.92036	0.33593
2267.99180	0.33796
2266.06323	0.34011
2264.13467	0.34227
2262.20610	0.34448
2260.27754	0.34670
2258.34897	0.34882
2256.42041	0.35091
2254.49185	0.35307
2252.56328	0.35518
2250.63472	0.35728
2248.70615	0.35948
2246.77759	0.36168
2244.84902	0.36384
2242.92046	0.36602
2240.99189	0.36823
2239.06333	0.37037
2237.13477	0.37248
2235.20620	0.37473
2233.27764	0.37705
2231.34907	0.37932
2229.42051	0.38160
2227.49194	0.38390
2225.56338	0.38619
2223.63481	0.38849
2221.70625	0.39072
2219.77769	0.39295
2217.84912	0.39525
2215.92056	0.39747
2213.99199	0.39957
2212.06343	0.40179
2210.13486	0.40410
2208.20630	0.40632
2206.27773	0.40852
2204.34917	0.41069
2202.42061	0.41277
2200.49204	0.41481
2198.56348	0.41688
2196.63491	0.41893
2194.70635	0.42093
2192.77778	0.42290
2190.84922	0.42482
2188.92065	0.42669
2186.99209	0.42847
2185.06353	0.43025
2183.13496	0.43211
2181.20640	0.43397
2179.27783	0.43571
2177.34927	0.43738
2175.42070	0.43903
2173.49214	0.44063
2171.56357	0.44220
2169.63501	0.44367
2167.70645	0.44501
2165.77788	0.44631
2163.84932	0.44763
2161.92075	0.44884
2159.99219	0.44990
2158.06362	0.45094
2156.13506	0.45211
2154.20649	0.45325
2152.27793	0.45416
2150.34937	0.45490
2148.42080	0.45556
2146.49224	0.45607
2144.56367	0.45655
2142.63511	0.45714
2140.70654	0.45767
2138.77798	0.45803
2136.84941	0.45825
2134.92085	0.45840
2132.99229	0.45846
2131.06372	0.45851
2129.13516	0.45847
2127.20659	0.45826
2125.27803	0.45800
2123.34946	0.45772
2121.42090	0.45730
2119.49233	0.45672
2117.56377	0.45608
2115.63521	0.45538
2113.70664	0.45468
2111.77808	0.45405
2109.84951	0.45332
2107.92095	0.45234
2105.99238	0.45123
2104.06382	0.45021
2102.13525	0.44919
2100.20669	0.44796
2098.27812	0.44648
2096.34956	0.44496
2094.42100	0.44346
2092.49243	0.44189
2090.56387	0.44027
2088.63530	0.43863
2086.70674	0.43687
2084.77817	0.43505
2082.84961	0.43332
2080.92104	0.43153
2078.99248	0.42952
2077.06392	0.42738
2075.13535	0.42530
2073.20679	0.42324
2071.27822	0.42104
2069.34966	0.41873
2067.42109	0.41641
2065.49253	0.41415
2063.56396	0.41189
2061.63540	0.40958
2059.70684	0.40715
2057.77827	0.40472
2055.84971	0.40231
2053.92114	0.39979
2051.99258	0.39723
2050.06401	0.39467
2048.13545	0.39209
2046.20688	0.38946
2044.27832	0.38683
2042.34976	0.38425
2040.42119	0.38161
2038.49263	0.37885
2036.56406	0.37607
2034.63550	0.37332
2032.70693	0.37056
2030.77837	0.36775
2028.84980	0.36493
2026.92124	0.36215
2024.99268	0.35937
2023.06411	0.35658
2021.13555	0.35388
2019.20698	0.35120
2017.27842	0.34848
2015.34985	0.34565
2013.42129	0.34278
2011.49272	0.34001
2009.56416	0.33738
2007.63560	0.33474
2005.70703	0.33206
2003.77847	0.32942
2001.84990	0.32677
1999.92134	0.32409
1997.99277	0.32142
1996.06421	0.31886
1994.13564	0.31640
1992.20708	0.31383
1990.27852	0.31110
1988.34995	0.30851
1986.42139	0.30606
1984.49282	0.30367
1982.56426	0.30131
1980.63569	0.29891
1978.70713	0.29653
1976.77856	0.29421
1974.85000	0.29194
1972.92144	0.28972
1970.99287	0.28753
1969.06431	0.28538
1967.13574	0.28331
1965.20718	0.28130
1963.27861	0.27929
1961.35005	0.27732
1959.42148	0.27541
1957.49292	0.27352
1955.56436	0.27165
1953.63579	0.26991
1951.70723	0.26821
1949.77866	0.26649
1947.85010	0.26480
1945.92153	0.26318
1943.99297	0.26162
1942.06440	0.26012
1940.13584	0.25868
1938.20728	0.25725
1936.27871	0.25584
1934.35015	0.25447
1932.42158	0.25318
1930.49302	0.25194
1928.56445	0.25071
1926.63589	0.24951
1924.70732	0.24850
1922.77876	0.24757
1920.85020	0.24655
1918.92163	0.24559
1916.99307	0.24470
1915.06450	0.24377
1913.13594	0.24289
1911.20737	0.24218
1909.27881	0.24146
1907.35024	0.24065
1905.42168	0.23992
1903.49312	0.23939
1901.56455	0.23892
1899.63599	0.23836
1897.70742	0.23784
1895.77886	0.23741
1893.85029	0.23696
1891.92173	0.23648
1889.99316	0.23621
1888.06460	0.23608
1886.13604	0.23592
1884.20747	0.23573
1882.27891	0.23552
1880.35034	0.23528
1878.42178	0.23503
1876.49321	0.23488
1874.56465	0.23485
1872.63608	0.23495
1870.70752	0.23514
1868.77896	0.23555
1866.85039	0.23585
1864.92183	0.23585
1862.99326	0.23592
1861.06470	0.23616
1859.13613	0.23651
1857.20757	0.23686
1855.27900	0.23729
1853.35044	0.23773
1851.42187	0.23820
1849.49331	0.23875
1847.56475	0.23944
1845.63618	0.24024
1843.70762	0.24114
1841.77905	0.24193
1839.85049	0.24240
1837.92192	0.24301
1835.99336	0.24380
1834.06479	0.24468
1832.13623	0.24562
1830.20767	0.24703
1828.27910	0.24872
1826.35054	0.24993
1824.42197	0.25115
1822.49341	0.25239
1820.56484	0.25358
1818.63628	0.25491
1816.70771	0.25652
1814.77915	0.25810
1812.85059	0.25975
1810.92202	0.26182
1808.99346	0.26400
1807.06489	0.26597
1805.13633	0.26786
1803.20776	0.27001
1801.27920	0.27250
1799.35063	0.27534
1797.42207	0.27790
1795.49351	0.28023
1793.56494	0.28291
1791.63638	0.28663
1789.70781	0.29044
1787.77925	0.29321
1785.85068	0.29626
1783.92212	0.29989
1781.99355	0.30374
1780.06499	0.30784
1778.13643	0.31219
1776.20786	0.31624
1774.27930	0.32033
1772.35073	0.32592
1770.42217	0.33253
1768.49360	0.33827
1766.56504	0.34360
1764.63647	0.34881
1762.70791	0.35453
1760.77935	0.36207
1758.85078	0.36919
1756.92222	0.37624
1754.99365	0.38408
1753.06509	0.39106
1751.13652	0.39904
1749.20796	0.40945
1747.27939	0.42019
1745.35083	0.42970
1743.42227	0.43954
1741.49370	0.45015
1739.56514	0.46252
1737.63657	0.47492
1735.70801	0.48558
1733.77944	0.50181
1731.85088	0.52170
1729.92231	0.53729
1727.99375	0.55320
1726.06519	0.57016
1724.13662	0.58859
1722.20806	0.60844
1720.27949	0.62641
1718.35093	0.64721
1716.42236	0.67929
1714.49380	0.71048
1712.56523	0.73505
1710.63667	0.75837
1708.70811	0.78310
1706.77954	0.81096
1704.85098	0.84478
1702.92241	0.87525
1700.99385	0.90467
1699.06528	0.94890
1697.13672	0.98952
1695.20815	1.03034
1693.27959	1.06915
1691.35103	1.09916
1689.42246	1.13353
1687.49390	1.16987
1685.56533	1.20399
1683.63677	1.25745
1681.70820	1.31492
1679.77964	1.35135
1677.85107	1.38560
1675.92251	1.42401
1673.99395	1.47121
1672.06538	1.51259
1670.13682	1.55267
1668.20825	1.60594
1666.27969	1.64757
1664.35112	1.68111
1662.42256	1.72292
1660.49399	1.77108
1658.56543	1.80813
1656.63687	1.83834
1654.70830	1.86687
1652.77974	1.91853
1650.85117	1.97439
1648.92261	1.99669
1646.99404	2.02714
1645.06548	2.06307
1643.13691	2.08599
1641.20835	2.09945
1639.27979	2.11225
1637.35122	2.12088
1635.42266	2.12400
1633.49409	2.12421
1631.56553	2.11816
1629.63696	2.10706
1627.70840	2.08489
1625.77983	2.05911
1623.85127	2.02582
1621.92271	1.98347
1619.99414	1.94561
1618.06558	1.90754
1616.13701	1.85049
1614.20845	1.79314
1612.27988	1.75072
1610.35132	1.70498
1608.42275	1.65392
1606.49419	1.60304
1604.56562	1.55634
1602.63706	1.51067
1600.70850	1.46477
1598.77993	1.42205
1596.85137	1.38222
1594.92280	1.34338
1592.99424	1.30503
1591.06567	1.26925
1589.13711	1.23537
1587.20854	1.20373
1585.27998	1.17429
1583.35142	1.14609
1581.42285	1.11961
1579.49429	1.09665
1577.56572	1.07551
1575.63716	1.04841
1573.70859	1.02443
1571.78003	1.00876
1569.85146	0.99082
1567.92290	0.96970
1565.99434	0.95308
1564.06577	0.93864
1562.13721	0.92647
1560.20864	0.91630
1558.28008	0.89624
1556.35151	0.87692
1554.42295	0.86626
1552.49438	0.85580
1550.56582	0.84519
1548.63726	0.83443
1546.70869	0.82537
1544.78013	0.81743
1542.85156	0.80918
1540.92300	0.79962
1538.99443	0.78790
1537.06587	0.78020
1535.13730	0.77480
1533.20874	0.76770
1531.28018	0.76021
1529.35161	0.75493
1527.42305	0.74988
1525.49448	0.74407
1523.56592	0.73843
1521.63735	0.73254
1519.70879	0.72626
1517.78022	0.72129
1515.85166	0.71634
1513.92310	0.71159
1511.99453	0.70768
1510.06597	0.70383
1508.13740	0.69965
1506.20884	0.69410
1504.28027	0.69018
1502.35171	0.68769
1500.42314	0.68518
1498.49458	0.68244
1496.56602	0.67917
1494.63745	0.67580
1492.70889	0.67299
1490.78032	0.67040
1488.85176	0.66731
1486.92319	0.66394
1484.99463	0.66088
1483.06606	0.65818
1481.13750	0.65552
1479.20894	0.65297
1477.28037	0.65064
1475.35181	0.64821
1473.42324	0.64547
1471.49468	0.64197
1469.56611	0.63866
1467.63755	0.63606
1465.70898	0.63366
1463.78042	0.63120
1461.85186	0.62898
1459.92329	0.62712
1457.99473	0.62513
1456.06616	0.62234
1454.13760	0.61975
1452.20903	0.61786
1450.28047	0.61621
1448.35190	0.61471
1446.42334	0.61321
1444.49478	0.61160
1442.56621	0.60995
1440.63765	0.60846
1438.70908	0.60728
1436.78052	0.60624
1434.85195	0.60503
1432.92339	0.60364
1430.99482	0.60228
1429.06626	0.60087
1427.13770	0.59942
1425.20913	0.59801
1423.28057	0.59660
1421.35200	0.59518
1419.42344	0.59362
1417.49487	0.59185
1415.56631	0.59028
1413.63774	0.58891
1411.70918	0.58750
1409.78062	0.58608
1407.85205	0.58471
1405.92349	0.58338
1403.99492	0.58193
1402.06636	0.58038
1400.13779	0.57900
1398.20923	0.57777
1396.28066	0.57656
1394.35210	0.57528
1392.42354	0.57401
1390.49497	0.57282
1388.56641	0.57174
1386.63784	0.57073
1384.70928	0.56959
1382.78071	0.56839
1380.85215	0.56737
1378.92358	0.56664
1376.99502	0.56607
1375.06646	0.56545
1373.13789	0.56447
1371.20933	0.56332
1369.28076	0.56226
1367.35220	0.56114
1365.42363	0.56001
1363.49507	0.55908
1361.56650	0.55836
1359.63794	0.55760
1357.70937	0.55674
1355.78081	0.55580
1353.85225	0.55484
1351.92368	0.55393
1349.99512	0.55311
1348.06655	0.55229
1346.13799	0.55138
1344.20942	0.55046
1342.28086	0.54960
1340.35229	0.54883
1338.42373	0.54806
1336.49517	0.54706
1334.56660	0.54592
1332.63804	0.54489
1330.70947	0.54401
1328.78091	0.54314
1326.85234	0.54224
1324.92378	0.54139
1322.99521	0.54057
1321.06665	0.53966
1319.13809	0.53870
1317.20952	0.53771
1315.28096	0.53671
1313.35239	0.53571
1311.42383	0.53477
1309.49526	0.53395
1307.56670	0.53321
1305.63813	0.53239
1303.70957	0.53147
1301.78101	0.53065
1299.85244	0.52989
1297.92388	0.52902
1295.99531	0.52804
1294.06675	0.52709
1292.13818	0.52615
1290.20962	0.52524
1288.28105	0.52451
1286.35249	0.52397
1284.42393	0.52351
1282.49536	0.52288
1280.56680	0.52208
1278.63823	0.52122
1276.70967	0.52030
1274.78110	0.51946
1272.85254	0.51875
1270.92397	0.51804
1268.99541	0.51744
1267.06685	0.51693
1265.13828	0.51624
1263.20972	0.51539
1261.28115	0.51474
1259.35259	0.51424
1257.42402	0.51353
1255.49546	0.51272
1253.56689	0.51212
1251.63833	0.51181
1249.70977	0.51150
1247.78120	0.51091
1245.85264	0.51023
1243.92407	0.50963
1241.99551	0.50905
1240.06694	0.50838
1238.13838	0.50752
1236.20981	0.50658
1234.28125	0.50580
1232.35269	0.50515
1230.42412	0.50446
1228.49556	0.50371
1226.56699	0.50295
1224.63843	0.50205
1222.70986	0.50100
1220.78130	0.50005
1218.85273	0.49932
1216.92417	0.49866
1214.99561	0.49791
1213.06704	0.49705
1211.13848	0.49616
1209.20991	0.49528
1207.28135	0.49438
1205.35278	0.49334
1203.42422	0.49224
1201.49565	0.49122
1199.56709	0.49021
1197.63853	0.48924
1195.70996	0.48847
1193.78140	0.48774
1191.85283	0.48677
1189.92427	0.48567
1187.99570	0.48467
1186.06714	0.48376
1184.13857	0.48280
1182.21001	0.48169
1180.28145	0.48060
1178.35288	0.47982
1176.42432	0.47924
1174.49575	0.47849
1172.56719	0.47757
1170.63862	0.47660
1168.71006	0.47560
1166.78149	0.47470
1164.85293	0.47396
1162.92437	0.47319
1160.99580	0.47224
1159.06724	0.47118
1157.13867	0.47022
1155.21011	0.46940
1153.28154	0.46851
1151.35298	0.46758
1149.42441	0.46678
1147.49585	0.46602
1145.56729	0.46516
1143.63872	0.46419
1141.71016	0.46334
1139.78159	0.46261
1137.85303	0.46180
1135.92446	0.46100
1133.99590	0.46030
1132.06733	0.45947
1130.13877	0.45850
1128.21021	0.45760
1126.28164	0.45675
1124.35308	0.45603
1122.42451	0.45542
1120.49595	0.45474
1118.56738	0.45418
1116.63882	0.45394
1114.71025	0.45376
1112.78169	0.45315
1110.85312	0.45235
1108.92456	0.45185
1106.99600	0.45155
1105.06743	0.45117
1103.13887	0.45077
1101.21030	0.45046
1099.28174	0.45031
1097.35317	0.45028
1095.42461	0.45012
1093.49604	0.44964
1091.56748	0.44902
1089.63892	0.44867
1087.71035	0.44864
1085.78179	0.44844
1083.85322	0.44797
1081.92466	0.44759
1079.99609	0.44720
1078.06753	0.44673
1076.13896	0.44637
1074.21040	0.44629
1072.28184	0.44648
1070.35327	0.44683
1068.42471	0.44725
1066.49614	0.44751
1064.56758	0.44756
1062.63901	0.44770
1060.71045	0.44794
1058.78188	0.44812
1056.85332	0.44835
1054.92476	0.44880
1052.99619	0.44926
1051.06763	0.44956
1049.13906	0.44994
1047.21050	0.45042
1045.28193	0.45076
1043.35337	0.45109
1041.42480	0.45157
1039.49624	0.45209
1037.56768	0.45265
1035.63911	0.45328
1033.71055	0.45410
1031.78198	0.45509
1029.85342	0.45611
1027.92485	0.45705
1025.99629	0.45801
1024.06772	0.45925
1022.13916	0.46066
1020.21060	0.46194
1018.28203	0.46311
1016.35347	0.46439
1014.42490	0.46571
1012.49634	0.46691
1010.56777	0.46820
1008.63921	0.46978
1006.71064	0.47153
1004.78208	0.47326
1002.85352	0.47513
1000.92495	0.47718
998.99639	0.47903
997.06782	0.48065
995.13926	0.48250
993.21069	0.48474
991.28213	0.48707
989.35356	0.48931
987.42500	0.49158
985.49644	0.49398
983.56787	0.49652
981.63931	0.49930
979.71074	0.50235
977.78218	0.50545
975.85361	0.50848
973.92505	0.51153
971.99648	0.51486
970.06792	0.51849
968.13936	0.52222
966.21079	0.52591
964.28223	0.52964
962.35366	0.53362
960.42510	0.53792
958.49653	0.54220
956.56797	0.54627
954.63940	0.55050
952.71084	0.55503
950.78228	0.55970
948.85371	0.56454
946.92515	0.56948
944.99658	0.57454
943.06802	0.58007
941.13945	0.58614
939.21089	0.59235
937.28232	0.59841
935.35376	0.60440
933.42520	0.61065
931.49663	0.61735
929.56807	0.62426
927.63950	0.63135
925.71094	0.63886
923.78237	0.64609
921.85381	0.65289
919.92524	0.66032
917.99668	0.66825
916.06812	0.67584
914.13955	0.68345
912.21099	0.69159
910.28242	0.70019
908.35386	0.70916
906.42529	0.71848
904.49673	0.72765
902.56816	0.73638
900.63960	0.74526
898.71104	0.75476
896.78247	0.76500
894.85391	0.77561
892.92534	0.78602
890.99678	0.79607
889.06821	0.80584
887.13965	0.81535
885.21108	0.82441
883.28252	0.83366
881.35396	0.84407
879.42539	0.85547
877.49683	0.86763
875.56826	0.87993
873.63970	0.89086
871.71113	0.90112
869.78257	0.91263
867.85400	0.92527
865.92544	0.93776
863.99687	0.94873
862.06831	0.95897
860.13975	0.97041
858.21118	0.98242
856.28262	0.99314
854.35405	1.00359
852.42549	1.01607
850.49692	1.02916
848.56836	1.04058
846.63979	1.05101
844.71123	1.06145
842.78267	1.07211
840.85410	1.08290
838.92554	1.09316
836.99697	1.10334
835.06841	1.11461
833.13984	1.12766
831.21128	1.14153
829.28271	1.15453
827.35415	1.16488
825.42559	1.17052
823.49702	1.17627
821.56846	1.18707
819.63989	1.19969
817.71133	1.21062
815.78276	1.21967
813.85420	1.22905
811.92563	1.24223
809.99707	1.25396
808.06851	1.25996
806.13994	1.26820
804.21138	1.27971
802.28281	1.29943
800.35425	1.31706
798.42568	1.31006
796.49712	1.30352
794.56855	1.30952
792.63999	1.30339
790.71143	1.29074
788.78286	1.29330
786.85430	1.29414
784.92573	1.29481
782.99717	1.33780
781.06860	1.39948
779.14004	1.38823
777.21147	1.35506
775.28291	1.39796
773.35435	1.45487
771.42578	1.40960
769.49722	1.30419
767.56865	1.23438
765.64009	1.24985
763.71152	1.30312
761.78296	1.28325
759.85439	1.27047
757.92583	1.35484
755.99727	1.32334
754.06870	1.18458
752.14014	1.15742
750.21157	1.18397
748.28301	1.20141
746.35444	1.29025
744.42588	1.43975
742.49731	1.32740
740.56875	1.14092
738.64019	1.09996
736.71162	1.17042
734.78306	1.19194
732.85449	0.99846
730.92593	0.78698
728.99736	0.65848
727.06880	0.56301
725.14023	0.47330
723.21167	0.41406
721.28311	0.36806
719.35454	0.30763
717.42598	0.18392
715.49741	0.00665
713.56885	-0.17949
711.64028	-0.31296
709.71172	-0.26388
707.78315	0.05514
705.85459	0.28198
703.92603	0.18574
701.99746	0.04548
700.06890	0.01455
698.14033	0.03241
696.21177	0.07199
694.28320	0.14821
692.35464	0.18747
690.42607	0.19734
688.49751	0.11584
686.56895	-0.04341
684.64038	-0.07086
682.71182	0.07571
680.78325	0.31910
678.85469	0.50361
676.92612	0.43087
674.99756	0.30022
673.06899	0.24363
671.14043	0.36162
669.21187	0.70554
667.28330	0.67014
665.35474	0.32962
663.42617	0.16867
661.49761	0.17520
659.56904	0.15099
657.64048	0.02934
655.71191	-0.07395
653.78335	-0.06329
651.85479	0.06661
649.92622	0.20853
647.99766	0.31052
646.06909	0.46111
644.14053	0.39572
642.21196	0.24384
640.28340	0.28554
638.35483	0.53874
636.42627	0.67988
634.49771	0.38370
632.56914	0.26420
630.64058	0.36151
628.71201	0.38468
626.78345	0.24620
624.85488	0.15584
622.92632	0.10064
620.99775	0.08324
619.06919	0.13030
617.14062	0.18829
615.21206	0.15479
613.28350	0.11878
611.35493	0.16048
609.42637	0.24253
607.49780	0.29036
605.56924	0.22687
603.64067	0.13355
601.71211	0.11144
599.78354	0.15429
597.85498	0.21877
595.92642	0.23136
593.99785	0.20891
592.06929	0.22693
590.14072	0.24889
588.21216	0.21880
586.28359	0.20220
584.35503	0.23271
582.42646	0.22845
580.49790	0.17240
578.56934	0.13592
576.64077	0.12538
574.71221	0.13057
572.78364	0.11148
570.85508	0.07224
568.92651	0.06176
566.99795	0.08290
565.06938	0.12520
563.14082	0.18131
561.21226	0.16764
559.28369	0.05315
557.35513	-0.02474
555.42656	0.01354
553.49800	0.16791
551.56943	0.33438
549.64087	0.35605
547.71230	0.27666
545.78374	0.18886
543.85518	0.14285
541.92661	0.12655
539.99805	0.09113
538.06948	0.07421
536.14092	0.09856
534.21235	0.12447
532.28379	0.10829
530.35522	0.09670
528.42666	0.10387
526.49810	0.12327
524.56953	0.17114
522.64097	0.23573
520.71240	0.28414
518.78384	0.29879
516.85527	0.29559
514.92671	0.29823
512.99814	0.28905
511.06958	0.22819
509.14102	0.14539
507.21245	0.12213
505.28389	0.15139
503.35532	0.16462
501.42676	0.18458
499.49819	0.22899
