3997.91411	0.07269
3995.98555	0.07342
3994.05698	0.07443
3992.12842	0.07504
3990.19985	0.07543
3988.27129	0.07552
3986.34272	0.07507
3984.41416	0.07493
3982.48560	0.07537
3980.55703	0.07567
3978.62847	0.07587
3976.69990	0.07680
3974.77134	0.07820
3972.84277	0.07888
3970.91421	0.07857
3968.98564	0.07804
3967.05708	0.07784
3965.12852	0.07802
3963.19995	0.07871
3961.27139	0.07955
3959.34282	0.07976
3957.41426	0.07966
3955.48569	0.07982
3953.55713	0.08017
3951.62856	0.08141
3949.70000	0.08375
3947.77144	0.08522
3945.84287	0.08472
3943.91431	0.08462
3941.98574	0.08516
3940.05718	0.08340
3938.12861	0.08055
3936.20005	0.07989
3934.27148	0.08194
3932.34292	0.08538
3930.41436	0.08736
3928.48579	0.08635
3926.55723	0.08516
3924.62866	0.08593
3922.70010	0.08622
3920.77153	0.08499
3918.84297	0.08526
3916.91440	0.08648
3914.98584	0.08480
3913.05728	0.08093
3911.12871	0.07839
3909.20015	0.07823
3907.27158	0.08097
3905.34302	0.08791
3903.41445	0.09685
3901.48589	0.10125
3899.55732	0.09929
3897.62876	0.09325
3895.70020	0.08694
3893.77163	0.08555
3891.84307	0.08928
3889.91450	0.09113
3887.98594	0.08907
3886.05737	0.09011
3884.12881	0.09369
3882.20024	0.09489
3880.27168	0.09489
3878.34312	0.09203
3876.41455	0.08815
3874.48599	0.08970
3872.55742	0.09572
3870.62886	0.10154
3868.70029	0.10355
3866.77173	0.10101
3864.84316	0.10059
3862.91460	0.10181
3860.98604	0.09816
3859.05747	0.09381
3857.12891	0.09500
3855.20034	0.10245
3853.27178	0.11445
3851.34321	0.11656
3849.41465	0.10470
3847.48608	0.09521
3845.55752	0.09293
3843.62896	0.09713
3841.70039	0.10463
3839.77183	0.11270
3837.84326	0.11846
3835.91470	0.11691
3833.98613	0.11103
3832.05757	0.10660
3830.12900	0.10384
3828.20044	0.10286
3826.27187	0.10410
3824.34331	0.10645
3822.41475	0.11182
3820.48618	0.12052
3818.55762	0.12248
3816.62905	0.11888
3814.70049	0.11494
3812.77192	0.10886
3810.84336	0.10463
3808.91479	0.10597
3806.98623	0.11248
3805.05767	0.11872
3803.12910	0.12300
3801.20054	0.12897
3799.27197	0.13051
3797.34341	0.12635
3795.41484	0.12226
3793.48628	0.11758
3791.55771	0.11404
3789.62915	0.11361
3787.70059	0.11563
3785.77202	0.11965
3783.84346	0.12361
3781.91489	0.12558
3779.98633	0.12817
3778.05776	0.13067
3776.12920	0.12923
3774.20063	0.12742
3772.27207	0.12944
3770.34351	0.13545
3768.41494	0.14166
3766.48638	0.14426
3764.55781	0.14490
3762.62925	0.14523
3760.70068	0.14799
3758.77212	0.15453
3756.84355	0.15981
3754.91499	0.16226
3752.98643	0.16834
3751.05786	0.18118
3749.12930	0.19125
3747.20073	0.19104
3745.27217	0.19125
3743.34360	0.19431
3741.41504	0.19467
3739.48647	0.19584
3737.55791	0.20324
3735.62935	0.21759
3733.70078	0.22910
3731.77222	0.22777
3729.84365	0.22283
3727.91509	0.22314
3725.98652	0.22963
3724.05796	0.23796
3722.12939	0.24352
3720.20083	0.24629
3718.27227	0.24785
3716.34370	0.25082
3714.41514	0.25817
3712.48657	0.27339
3710.55801	0.29508
3708.62944	0.30871
3706.70088	0.31261
3704.77231	0.31895
3702.84375	0.33229
3700.91519	0.35049
3698.98662	0.36710
3697.05806	0.38200
3695.12949	0.40000
3693.20093	0.42178
3691.27236	0.44882
3689.34380	0.48288
3687.41523	0.51495
3685.48667	0.53630
3683.55811	0.55582
3681.62954	0.58145
3679.70098	0.61466
3677.77241	0.65340
3675.84385	0.70082
3673.91528	0.75622
3671.98672	0.79445
3670.05815	0.83011
3668.12959	0.87900
3666.20103	0.91873
3664.27246	0.95236
3662.34390	0.99299
3660.41533	1.03966
3658.48677	1.08715
3656.55820	1.13880
3654.62964	1.19483
3652.70107	1.24226
3650.77251	1.29014
3648.84395	1.35792
3646.91538	1.42457
3644.98682	1.46115
3643.05825	1.49025
3641.12969	1.52608
3639.20112	1.56903
3637.27256	1.61356
3635.34399	1.65783
3633.41543	1.70343
3631.48687	1.74856
3629.55830	1.79744
3627.62974	1.85595
3625.70117	1.89931
3623.77261	1.92579
3621.84404	1.95702
3619.91548	1.99812
3617.98691	2.04617
3616.05835	2.08753
3614.12979	2.12185
3612.20122	2.15964
3610.27266	2.19772
3608.34409	2.23715
3606.41553	2.27784
3604.48696	2.31256
3602.55840	2.34497
3600.62983	2.38456
3598.70127	2.42944
3596.77271	2.47192
3594.84414	2.51211
3592.91558	2.55072
3590.98701	2.58776
3589.05845	2.62699
3587.12988	2.67552
3585.20132	2.72312
3583.27275	2.75746
3581.34419	2.78879
3579.41562	2.82520
3577.48706	2.86583
3575.55850	2.90828
3573.62993	2.95174
3571.70137	2.99350
3569.77280	3.03558
3567.84424	3.08542
3565.91567	3.14452
3563.98711	3.19314
3562.05854	3.22852
3560.12998	3.26496
3558.20142	3.30569
3556.27285	3.34905
3554.34429	3.39452
3552.41572	3.44398
3550.48716	3.49288
3548.55859	3.53685
3546.63003	3.58049
3544.70146	3.62741
3542.77290	3.67462
3540.84434	3.72044
3538.91577	3.76601
3536.98721	3.81366
3535.05864	3.86441
3533.13008	3.91239
3531.20151	3.95814
3529.27295	4.00663
3527.34438	4.05744
3525.41582	4.10674
3523.48726	4.15571
3521.55869	4.20564
3519.63013	4.25390
3517.70156	4.30104
3515.77300	4.34449
3513.84443	4.38669
3511.91587	4.43388
3509.98730	4.48486
3508.05874	4.53587
3506.13018	4.58504
3504.20161	4.63261
3502.27305	4.68042
3500.34448	4.72462
3498.41592	4.76714
3496.48735	4.81743
3494.55879	4.86753
3492.63022	4.91234
3490.70166	4.96048
3488.77310	5.01069
3486.84453	5.05919
3484.91597	5.11089
3482.98740	5.17092
3481.05884	5.23254
3479.13027	5.28357
3477.20171	5.32390
3475.27314	5.36200
3473.34458	5.40600
3471.41602	5.45472
3469.48745	5.50204
3467.55889	5.55179
3465.63032	5.60543
3463.70176	5.65618
3461.77319	5.69946
3459.84463	5.74181
3457.91606	5.79358
3455.98750	5.85704
3454.05894	5.92449
3452.13037	5.98609
3450.20181	6.03818
3448.27324	6.07371
3446.34468	6.09688
3444.41611	6.13563
3442.48755	6.20117
3440.55898	6.26580
3438.63042	6.31104
3436.70186	6.34813
3434.77329	6.40108
3432.84473	6.47375
3430.91616	6.54483
3428.98760	6.60402
3427.05903	6.63874
3425.13047	6.67543
3423.20190	6.74161
3421.27334	6.79679
3419.34478	6.82835
3417.41621	6.87447
3415.48765	6.93052
3413.55908	6.99870
3411.63052	7.10135
3409.70195	7.18263
3407.77339	7.20906
3405.84482	7.22599
3403.91626	7.26862
3401.98770	7.32561
3400.05913	7.36592
3398.13057	7.38007
3396.20200	7.37754
3394.27344	7.40474
3392.34487	7.48753
3390.41631	7.54880
3388.48774	7.52591
3386.55918	7.52408
3384.63062	7.59183
3382.70205	7.63892
3380.77349	7.63718
3378.84492	7.65110
3376.91636	7.71432
3374.98779	7.81887
3373.05923	7.91371
3371.13066	7.91460
3369.20210	7.86942
3367.27354	7.88462
3365.34497	8.00220
3363.41641	8.10437
3361.48784	8.06994
3359.55928	8.04121
3357.63071	8.11871
3355.70215	8.18236
3353.77358	8.10591
3351.84502	8.01437
3349.91646	8.01702
3347.98789	8.11940
3346.05933	8.25488
3344.13076	8.33142
3342.20220	8.35901
3340.27363	8.32155
3338.34507	8.28153
3336.41650	8.34150
3334.48794	8.44146
3332.55937	8.46575
3330.63081	8.45165
3328.70225	8.43032
3326.77368	8.38976
3324.84512	8.34679
3322.91655	8.35680
3320.98799	8.40770
3319.05942	8.34460
3317.13086	8.25000
3315.20229	8.24704
3313.27373	8.30159
3311.34517	8.39891
3309.41660	8.51698
3307.48804	8.58023
3305.55947	8.57453
3303.63091	8.57062
3301.70234	8.52368
3299.77378	8.42631
3297.84521	8.39887
3295.91665	8.43426
3293.98809	8.41128
3292.05952	8.42067
3290.13096	8.51171
3288.20239	8.49528
3286.27383	8.39578
3284.34526	8.36998
3282.41670	8.46669
3280.48813	8.66677
3278.55957	8.82332
3276.63101	8.76313
3274.70244	8.62545
3272.77388	8.56051
3270.84531	8.59770
3268.91675	8.66793
3266.98818	8.61036
3265.05962	8.54807
3263.13105	8.57862
3261.20249	8.56324
3259.27393	8.44948
3257.34536	8.39768
3255.41680	8.57446
3253.48823	8.88878
3251.55967	8.99629
3249.63110	8.94381
3247.70254	8.93223
3245.77397	8.79580
3243.84541	8.63893
3241.91685	8.64015
3239.98828	8.63439
3238.05972	8.57288
3236.13115	8.58872
3234.20259	8.59438
3232.27402	8.47355
3230.34546	8.35255
3228.41689	8.37163
3226.48833	8.48534
3224.55977	8.47556
3222.63120	8.31981
3220.70264	8.21316
3218.77407	8.19513
3216.84551	8.22646
3214.91694	8.32606
3212.98838	8.41380
3211.05981	8.38375
3209.13125	8.30140
3207.20269	8.22782
3205.27412	8.15425
3203.34556	8.05086
3201.41699	7.96996
3199.48843	7.97589
3197.55986	7.99047
3195.63130	7.92575
3193.70273	7.85226
3191.77417	7.84409
3189.84561	7.83545
3187.91704	7.74944
3185.98848	7.63284
3184.05991	7.53603
3182.13135	7.48016
3180.20278	7.47367
3178.27422	7.45552
3176.34565	7.39019
3174.41709	7.31213
3172.48853	7.23564
3170.55996	7.17218
3168.63140	7.13569
3166.70283	7.09050
3164.77427	6.99640
3162.84570	6.89261
3160.91714	6.83591
3158.98857	6.81566
3157.06001	6.76623
3155.13145	6.67182
3153.20288	6.57957
3151.27432	6.50256
3149.34575	6.42563
3147.41719	6.34709
3145.48862	6.26621
3143.56006	6.18396
3141.63149	6.11318
3139.70293	6.05360
3137.77437	5.99319
3135.84580	5.93531
3133.91724	5.88365
3131.98867	5.81781
3130.06011	5.73180
3128.13154	5.65118
3126.20298	5.58257
3124.27441	5.50922
3122.34585	5.42457
3120.41729	5.34261
3118.48872	5.26943
3116.56016	5.19444
3114.63159	5.11970
3112.70303	5.05216
3110.77446	4.98621
3108.84590	4.91908
3106.91733	4.85153
3104.98877	4.78300
3103.06021	4.71457
3101.13164	4.64389
3099.20308	4.57231
3097.27451	4.50274
3095.34595	4.43251
3093.41738	4.36212
3091.48882	4.29444
3089.56025	4.23096
3087.63169	4.17156
3085.70312	4.11181
3083.77456	4.04699
3081.84600	3.97971
3079.91743	3.91629
3077.98887	3.85723
3076.06030	3.79715
3074.13174	3.73512
3072.20317	3.67554
3070.27461	3.61842
3068.34604	3.56011
3066.41748	3.50067
3064.48892	3.44332
3062.56035	3.38830
3060.63179	3.33348
3058.70322	3.27835
3056.77466	3.22382
3054.84609	3.17070
3052.91753	3.11854
3050.98896	3.06631
3049.06040	3.01435
3047.13184	2.96392
3045.20327	2.91475
3043.27471	2.86581
3041.34614	2.81685
3039.41758	2.76884
3037.48901	2.72256
3035.56045	2.67692
3033.63188	2.63191
3031.70332	2.58828
3029.77476	2.54444
3027.84619	2.49942
3025.91763	2.45492
3023.98906	2.41203
3022.06050	2.37043
3020.13193	2.32945
3018.20337	2.28879
3016.27480	2.24858
3014.34624	2.20935
3012.41768	2.17130
3010.48911	2.13373
3008.56055	2.09619
3006.63198	2.05897
3004.70342	2.02252
3002.77485	1.98706
3000.84629	1.95226
2998.91772	1.91807
2996.98916	1.88514
2995.06060	1.85302
2993.13203	1.82064
2991.20347	1.78840
2989.27490	1.75711
2987.34634	1.72677
2985.41777	1.69720
2983.48921	1.66790
2981.56064	1.63893
2979.63208	1.61065
2977.70352	1.58264
2975.77495	1.55481
2973.84639	1.52759
2971.91782	1.50104
2969.98926	1.47524
2968.06069	1.44974
2966.13213	1.42398
2964.20356	1.39877
2962.27500	1.37426
2960.34644	1.34942
2958.41787	1.32443
2956.48931	1.30034
2954.56074	1.27753
2952.63218	1.25534
2950.70361	1.23296
2948.77505	1.21062
2946.84648	1.18900
2944.91792	1.16803
2942.98936	1.14711
2941.06079	1.12622
2939.13223	1.10563
2937.20366	1.08540
2935.27510	1.06551
2933.34653	1.04556
2931.41797	1.02524
2929.48940	1.00529
2927.56084	0.98608
2925.63228	0.96672
2923.70371	0.94616
2921.77515	0.92449
2919.84658	0.90313
2917.91802	0.88335
2915.98945	0.86592
2914.06089	0.85180
2912.13232	0.84054
2910.20376	0.83012
2908.27520	0.81906
2906.34663	0.80704
2904.41807	0.79428
2902.48950	0.78135
2900.56094	0.76855
2898.63237	0.75589
2896.70381	0.74355
2894.77524	0.73143
2892.84668	0.71910
2890.91812	0.70697
2888.98955	0.69575
2887.06099	0.68493
2885.13242	0.67383
2883.20386	0.66273
2881.27529	0.65232
2879.34673	0.64267
2877.41816	0.63306
2875.48960	0.62302
2873.56104	0.61289
2871.63247	0.60290
2869.70391	0.59262
2867.77534	0.58191
2865.84678	0.57107
2863.91821	0.56024
2861.98965	0.54955
2860.06108	0.53908
2858.13252	0.52881
2856.20396	0.51850
2854.27539	0.50763
2852.34683	0.49563
2850.41826	0.48328
2848.48970	0.47339
2846.56113	0.46767
2844.63257	0.46467
2842.70400	0.46172
2840.77544	0.45734
2838.84687	0.45182
2836.91831	0.44617
2834.98975	0.44071
2833.06118	0.43509
2831.13262	0.42928
2829.20405	0.42339
2827.27549	0.41753
2825.34692	0.41182
2823.41836	0.40612
2821.48979	0.40021
2819.56123	0.39411
2817.63267	0.38814
2815.70410	0.38256
2813.77554	0.37724
2811.84697	0.37192
2809.91841	0.36659
2807.98984	0.36154
2806.06128	0.35672
2804.13271	0.35176
2802.20415	0.34666
2800.27559	0.34159
2798.34702	0.33665
2796.41846	0.33198
2794.48989	0.32753
2792.56133	0.32309
2790.63276	0.31870
2788.70420	0.31432
2786.77563	0.31001
2784.84707	0.30600
2782.91851	0.30212
2780.98994	0.29819
2779.06138	0.29427
2777.13281	0.29043
2775.20425	0.28669
2773.27568	0.28295
2771.34712	0.27925
2769.41855	0.27574
2767.48999	0.27230
2765.56143	0.26890
2763.63286	0.26559
2761.70430	0.26240
2759.77573	0.25926
2757.84717	0.25610
2755.91860	0.25305
2753.99004	0.25015
2752.06147	0.24721
2750.13291	0.24424
2748.20435	0.24139
2746.27578	0.23866
2744.34722	0.23610
2742.41865	0.23360
2740.49009	0.23104
2738.56152	0.22849
2736.63296	0.22603
2734.70439	0.22361
2732.77583	0.22124
2730.84727	0.21902
2728.91870	0.21705
2726.99014	0.21519
2725.06157	0.21311
2723.13301	0.21084
2721.20444	0.20869
2719.27588	0.20677
2717.34731	0.20493
2715.41875	0.20312
2713.49019	0.20135
2711.56162	0.19951
2709.63306	0.19767
2707.70449	0.19601
2705.77593	0.19457
2703.84736	0.19319
2701.91880	0.19165
2699.99023	0.19004
2698.06167	0.18859
2696.13311	0.18727
2694.20454	0.18594
2692.27598	0.18462
2690.34741	0.18325
2688.41885	0.18177
2686.49028	0.18043
2684.56172	0.17943
2682.63315	0.17848
2680.70459	0.17737
2678.77603	0.17625
2676.84746	0.17515
2674.91890	0.17410
2672.99033	0.17314
2671.06177	0.17216
2669.13320	0.17110
2667.20464	0.17016
2665.27607	0.16938
2663.34751	0.16855
2661.41895	0.16765
2659.49038	0.16687
2657.56182	0.16618
2655.63325	0.16541
2653.70469	0.16464
2651.77612	0.16394
2649.84756	0.16337
2647.91899	0.16296
2645.99043	0.16239
2644.06187	0.16159
2642.13330	0.16091
2640.20474	0.16047
2638.27617	0.16014
2636.34761	0.15979
2634.41904	0.15947
2632.49048	0.15921
2630.56191	0.15898
2628.63335	0.15868
2626.70479	0.15831
2624.77622	0.15789
2622.84766	0.15753
2620.91909	0.15731
2618.99053	0.15716
2617.06196	0.15703
2615.13340	0.15706
2613.20483	0.15710
2611.27627	0.15694
2609.34771	0.15679
2607.41914	0.15679
2605.49058	0.15674
2603.56201	0.15663
2601.63345	0.15662
2599.70488	0.15666
2597.77632	0.15672
2595.84775	0.15686
2593.91919	0.15709
2591.99062	0.15733
2590.06206	0.15752
2588.13350	0.15775
2586.20493	0.15811
2584.27637	0.15844
2582.34780	0.15867
2580.41924	0.15896
2578.49067	0.15933
2576.56211	0.15966
2574.63354	0.15991
2572.70498	0.16017
2570.77642	0.16048
2568.84785	0.16085
2566.91929	0.16135
2564.99072	0.16193
2563.06216	0.16244
2561.13359	0.16292
2559.20503	0.16345
2557.27646	0.16396
2555.34790	0.16453
2553.41934	0.16522
2551.49077	0.16593
2549.56221	0.16653
2547.63364	0.16699
2545.70508	0.16755
2543.77651	0.16828
2541.84795	0.16894
2539.91938	0.16945
2537.99082	0.16999
2536.06226	0.17069
2534.13369	0.17154
2532.20513	0.17245
2530.27656	0.17326
2528.34800	0.17395
2526.41943	0.17466
2524.49087	0.17537
2522.56230	0.17612
2520.63374	0.17697
2518.70518	0.17783
2516.77661	0.17865
2514.84805	0.17951
2512.91948	0.18036
2510.99092	0.18118
2509.06235	0.18203
2507.13379	0.18288
2505.20522	0.18378
2503.27666	0.18472
2501.34810	0.18555
2499.41953	0.18626
2497.49097	0.18702
2495.56240	0.18793
2493.63384	0.18892
2491.70527	0.18993
2489.77671	0.19100
2487.84814	0.19194
2485.91958	0.19273
2483.99102	0.19352
2482.06245	0.19445
2480.13389	0.19549
2478.20532	0.19645
2476.27676	0.19723
2474.34819	0.19803
2472.41963	0.19900
2470.49106	0.19996
2468.56250	0.20089
2466.63394	0.20185
2464.70537	0.20280
2462.77681	0.20377
2460.84824	0.20480
2458.91968	0.20581
2456.99111	0.20683
2455.06255	0.20794
2453.13398	0.20903
2451.20542	0.20992
2449.27686	0.21079
2447.34829	0.21185
2445.41973	0.21300
2443.49116	0.21404
2441.56260	0.21505
2439.63403	0.21610
2437.70547	0.21713
2435.77690	0.21815
2433.84834	0.21929
2431.91978	0.22044
2429.99121	0.22149
2428.06265	0.22253
2426.13408	0.22371
2424.20552	0.22501
2422.27695	0.22622
2420.34839	0.22731
2418.41982	0.22846
2416.49126	0.22964
2414.56270	0.23072
2412.63413	0.23177
2410.70557	0.23288
2408.77700	0.23413
2406.84844	0.23547
2404.91987	0.23672
2402.99131	0.23784
2401.06274	0.23896
2399.13418	0.24026
2397.20562	0.24164
2395.27705	0.24294
2393.34849	0.24418
2391.41992	0.24554
2389.49136	0.24726
2387.56279	0.24971
2385.63423	0.25349
2383.70566	0.25910
2381.77710	0.26673
2379.84854	0.27622
2377.91997	0.28721
2375.99141	0.29957
2374.06284	0.31373
2372.13428	0.33016
2370.20571	0.34865
2368.27715	0.36813
2366.34858	0.38702
2364.42002	0.40344
2362.49146	0.41554
2360.56289	0.42202
2358.63433	0.42213
2356.70576	0.41507
2354.77720	0.40116
2352.84863	0.38348
2350.92007	0.36558
2348.99150	0.35417
2347.06294	0.35430
2345.13437	0.36706
2343.20581	0.38496
2341.27725	0.39456
2339.34868	0.39552
2337.42012	0.39374
2335.49155	0.39180
2333.56299	0.39018
2331.63442	0.38905
2329.70586	0.38774
2327.77729	0.38579
2325.84873	0.38283
2323.92017	0.37908
2321.99160	0.37463
2320.06304	0.36884
2318.13447	0.36229
2316.20591	0.35679
2314.27734	0.35345
2312.34878	0.35185
2310.42021	0.35042
2308.49165	0.34805
2306.56309	0.34503
2304.63452	0.34252
2302.70596	0.34127
2300.77739	0.34080
2298.84883	0.34042
2296.92026	0.34019
2294.99170	0.34004
2293.06313	0.33980
2291.13457	0.33967
2289.20601	0.33977
2287.27744	0.33995
2285.34888	0.34022
2283.42031	0.34094
2281.49175	0.34252
2279.56318	0.34490
2277.63462	0.34754
2275.70605	0.35003
2273.77749	0.35232
2271.84893	0.35454
2269.92036	0.35674
2267.99180	0.35882
2266.06323	0.36078
2264.13467	0.36262
2262.20610	0.36436
2260.27754	0.36613
2258.34897	0.36799
2256.42041	0.36985
2254.49185	0.37177
2252.56328	0.37380
2250.63472	0.37578
2248.70615	0.37770
2246.77759	0.37962
2244.84902	0.38160
2242.92046	0.38372
2240.99189	0.38591
2239.06333	0.38805
2237.13477	0.39016
2235.20620	0.39226
2233.27764	0.39443
2231.34907	0.39669
2229.42051	0.39885
2227.49194	0.40089
2225.56338	0.40305
2223.63481	0.40539
2221.70625	0.40776
2219.77769	0.41007
2217.84912	0.41226
2215.92056	0.41435
2213.99199	0.41644
2212.06343	0.41866
2210.13486	0.42093
2208.20630	0.42314
2206.27773	0.42527
2204.34917	0.42727
2202.42061	0.42924
2200.49204	0.43125
2198.56348	0.43321
2196.63491	0.43513
2194.70635	0.43703
2192.77778	0.43896
2190.84922	0.44090
2188.92065	0.44271
2186.99209	0.44439
2185.06353	0.44609
2183.13496	0.44786
2181.20640	0.44962
2179.27783	0.45134
2177.34927	0.45298
2175.42070	0.45456
2173.49214	0.45610
2171.56357	0.45761
2169.63501	0.45898
2167.70645	0.46018
2165.77788	0.46129
2163.84932	0.46250
2161.92075	0.46378
2159.99219	0.46491
2158.06362	0.46587
2156.13506	0.46678
2154.20649	0.46759
2152.27793	0.46828
2150.34937	0.46902
2148.42080	0.46976
2146.49224	0.47028
2144.56367	0.47061
2142.63511	0.47092
2140.70654	0.47122
2138.77798	0.47147
2136.84941	0.47166
2134.92085	0.47181
2132.99229	0.47180
2131.06372	0.47166
2129.13516	0.47145
2127.20659	0.47111
2125.27803	0.47068
2123.34946	0.47020
2121.42090	0.46968
2119.49233	0.46910
2117.56377	0.46841
2115.63521	0.46756
2113.70664	0.46667
2111.77808	0.46584
2109.84951	0.46492
2107.92095	0.46379
2105.99238	0.46256
2104.06382	0.46134
2102.13525	0.46008
2100.20669	0.45875
2098.27812	0.45726
2096.34956	0.45563
2094.42100	0.45397
2092.49243	0.45238
2090.56387	0.45085
2088.63530	0.44919
2086.70674	0.44727
2084.77817	0.44525
2082.84961	0.44334
2080.92104	0.44146
2078.99248	0.43947
2077.06392	0.43730
2075.13535	0.43498
2073.20679	0.43269
2071.27822	0.43044
2069.34966	0.42819
2067.42109	0.42602
2065.49253	0.42396
2063.56396	0.42163
2061.63540	0.41902
2059.70684	0.41634
2057.77827	0.41356
2055.84971	0.41078
2053.92114	0.40826
2051.99258	0.40584
2050.06401	0.40323
2048.13545	0.40049
2046.20688	0.39777
2044.27832	0.39519
2042.34976	0.39267
2040.42119	0.38992
2038.49263	0.38692
2036.56406	0.38392
2034.63550	0.38104
2032.70693	0.37823
2030.77837	0.37544
2028.84980	0.37265
2026.92124	0.36986
2024.99268	0.36700
2023.06411	0.36420
2021.13555	0.36158
2019.20698	0.35922
2017.27842	0.35688
2015.34985	0.35403
2013.42129	0.35083
2011.49272	0.34776
2009.56416	0.34491
2007.63560	0.34211
2005.70703	0.33929
2003.77847	0.33652
2001.84990	0.33394
1999.92134	0.33142
1997.99277	0.32883
1996.06421	0.32633
1994.13564	0.32435
1992.20708	0.32261
1990.27852	0.32011
1988.34995	0.31698
1986.42139	0.31392
1984.49282	0.31118
1982.56426	0.30872
1980.63569	0.30633
1978.70713	0.30396
1976.77856	0.30168
1974.85000	0.29949
1972.92144	0.29730
1970.99287	0.29524
1969.06431	0.29375
1967.13574	0.29251
1965.20718	0.29038
1963.27861	0.28761
1961.35005	0.28523
1959.42148	0.28318
1957.49292	0.28129
1955.56436	0.27960
1953.63579	0.27796
1951.70723	0.27620
1949.77866	0.27450
1947.85010	0.27315
1945.92153	0.27233
1943.99297	0.27197
1942.06440	0.27101
1940.13584	0.26854
1938.20728	0.26588
1936.27871	0.26408
1934.35015	0.26272
1932.42158	0.26145
1930.49302	0.26015
1928.56445	0.25889
1926.63589	0.25804
1924.70732	0.25808
1922.77876	0.25825
1920.85020	0.25734
1918.92163	0.25631
1916.99307	0.25537
1915.06450	0.25356
1913.13594	0.25198
1911.20737	0.25162
1909.27881	0.25165
1907.35024	0.25086
1905.42168	0.24950
1903.49312	0.24848
1901.56455	0.24777
1899.63599	0.24716
1897.70742	0.24690
1895.77886	0.24707
1893.85029	0.24698
1891.92173	0.24682
1889.99316	0.24735
1888.06460	0.24720
1886.13604	0.24594
1884.20747	0.24499
1882.27891	0.24448
1880.35034	0.24417
1878.42178	0.24411
1876.49321	0.24410
1874.56465	0.24413
1872.63608	0.24489
1870.70752	0.24723
1868.77896	0.25041
1866.85039	0.25065
1864.92183	0.24800
1862.99326	0.24618
1861.06470	0.24598
1859.13613	0.24635
1857.20757	0.24656
1855.27900	0.24677
1853.35044	0.24721
1851.42187	0.24794
1849.49331	0.24923
1847.56475	0.25133
1845.63618	0.25403
1843.70762	0.25587
1841.77905	0.25493
1839.85049	0.25343
1837.92192	0.25371
1835.99336	0.25472
1834.06479	0.25562
1832.13623	0.25761
1830.20767	0.26122
1828.27910	0.26350
1826.35054	0.26368
1824.42197	0.26404
1822.49341	0.26402
1820.56484	0.26401
1818.63628	0.26506
1816.70771	0.26675
1814.77915	0.26850
1812.85059	0.27101
1810.92202	0.27426
1808.99346	0.27646
1807.06489	0.27746
1805.13633	0.27891
1803.20776	0.28197
1801.27920	0.28607
1799.35063	0.28941
1797.42207	0.29147
1795.49351	0.29409
1793.56494	0.29845
1791.63638	0.30318
1789.70781	0.30473
1787.77925	0.30486
1785.85068	0.30726
1783.92212	0.31140
1781.99355	0.31604
1780.06499	0.32071
1778.13643	0.32479
1776.20786	0.32912
1774.27930	0.33554
1772.35073	0.34421
1770.42217	0.35046
1768.49360	0.35317
1766.56504	0.35594
1764.63647	0.36022
1762.70791	0.36685
1760.77935	0.37520
1758.85078	0.38215
1756.92222	0.38910
1754.99365	0.39643
1753.06509	0.40383
1751.13652	0.41485
1749.20796	0.42835
1747.27939	0.43853
1745.35083	0.44579
1743.42227	0.45404
1741.49370	0.46402
1739.56514	0.47607
1737.63657	0.48800
1735.70801	0.49986
1733.77944	0.51893
1731.85088	0.53820
1729.92231	0.55063
1727.99375	0.56343
1726.06519	0.57860
1724.13662	0.59701
1722.20806	0.61768
1720.27949	0.63807
1718.35093	0.66421
1716.42236	0.69991
1714.49380	0.72786
1712.56523	0.74814
1710.63667	0.76948
1708.70811	0.79503
1706.77954	0.82621
1704.85098	0.86283
1702.92241	0.89399
1700.99385	0.92567
1699.06528	0.97360
1697.13672	1.01551
1695.20815	1.05465
1693.27959	1.09159
1691.35103	1.12315
1689.42246	1.16215
1687.49390	1.20385
1685.56533	1.24542
1683.63677	1.30832
1681.70820	1.36802
1679.77964	1.40372
1677.85107	1.43972
1675.92251	1.48347
1673.99395	1.53780
1672.06538	1.58592
1670.13682	1.63376
1668.20825	1.69276
1666.27969	1.73725
1664.35112	1.77686
1662.42256	1.82946
1660.49399	1.88730
1658.56543	1.93091
1656.63687	1.96909
1654.70830	2.01024
1652.77974	2.07066
1650.85117	2.11643
1648.92261	2.13388
1646.99404	2.16279
1645.06548	2.18772
1643.13691	2.19943
1641.20835	2.20751
1639.27979	2.21882
1637.35122	2.22991
1635.42266	2.23593
1633.49409	2.22879
1631.56553	2.21289
1629.63696	2.19584
1627.70840	2.16979
1625.77983	2.14078
1623.85127	2.10432
1621.92271	2.05653
1619.99414	2.01303
1618.06558	1.97334
1616.13701	1.91571
1614.20845	1.85255
1612.27988	1.80436
1610.35132	1.75641
1608.42275	1.70404
1606.49419	1.65098
1604.56562	1.60266
1602.63706	1.55682
1600.70850	1.51134
1598.77993	1.46872
1596.85137	1.42911
1594.92280	1.39129
1592.99424	1.35432
1591.06567	1.31976
1589.13711	1.28708
1587.20854	1.25640
1585.27998	1.22777
1583.35142	1.20102
1581.42285	1.17694
1579.49429	1.15747
1577.56572	1.14166
1575.63716	1.12039
1573.70859	1.09756
1571.78003	1.08289
1569.85146	1.07012
1567.92290	1.05432
1565.99434	1.04053
1564.06577	1.03013
1562.13721	1.02332
1560.20864	1.02214
1558.28008	1.02035
1556.35151	1.00889
1554.42295	0.99842
1552.49438	0.99065
1550.56582	0.98397
1548.63726	0.97603
1546.70869	0.96832
1544.78013	0.96292
1542.85156	0.95873
1540.92300	0.95057
1538.99443	0.92757
1537.06587	0.90563
1535.13730	0.89344
1533.20874	0.88101
1531.28018	0.86622
1529.35161	0.85515
1527.42305	0.84687
1525.49448	0.83905
1523.56592	0.83253
1521.63735	0.82623
1519.70879	0.81696
1517.78022	0.80757
1515.85166	0.79704
1513.92310	0.78594
1511.99453	0.77815
1510.06597	0.77450
1508.13740	0.77401
1506.20884	0.76567
1504.28027	0.74940
1502.35171	0.73987
1500.42314	0.73498
1498.49458	0.73203
1496.56602	0.72756
1494.63745	0.72060
1492.70889	0.71582
1490.78032	0.71470
1488.85176	0.71280
1486.92319	0.70636
1484.99463	0.69953
1483.06606	0.69527
1481.13750	0.69279
1479.20894	0.69085
1477.28037	0.69015
1475.35181	0.69133
1473.42324	0.69273
1471.49468	0.68970
1469.56611	0.68325
1467.63755	0.67909
1465.70898	0.67788
1463.78042	0.67680
1461.85186	0.67527
1459.92329	0.67634
1457.99473	0.68034
1456.06616	0.67991
1454.13760	0.67306
1452.20903	0.66773
1450.28047	0.66462
1448.35190	0.66248
1446.42334	0.65945
1444.49478	0.65567
1442.56621	0.65269
1440.63765	0.65075
1438.70908	0.65002
1436.78052	0.64982
1434.85195	0.64746
1432.92339	0.64410
1430.99482	0.64206
1429.06626	0.64050
1427.13770	0.63884
1425.20913	0.63846
1423.28057	0.63904
1421.35200	0.63953
1419.42344	0.64048
1417.49487	0.63986
1415.56631	0.63632
1413.63774	0.63318
1411.70918	0.63164
1409.78062	0.63075
1407.85205	0.63022
1405.92349	0.63070
1403.99492	0.63088
1402.06636	0.62997
1400.13779	0.62978
1398.20923	0.63017
1396.28066	0.62928
1394.35210	0.62618
1392.42354	0.62148
1390.49497	0.61784
1388.56641	0.61604
1386.63784	0.61371
1384.70928	0.60972
1382.78071	0.60607
1380.85215	0.60358
1378.92358	0.60181
1376.99502	0.60080
1375.06646	0.60065
1373.13789	0.59984
1371.20933	0.59791
1369.28076	0.59646
1367.35220	0.59541
1365.42363	0.59459
1363.49507	0.59451
1361.56650	0.59372
1359.63794	0.59125
1357.70937	0.58892
1355.78081	0.58757
1353.85225	0.58649
1351.92368	0.58537
1349.99512	0.58446
1348.06655	0.58352
1346.13799	0.58240
1344.20942	0.58157
1342.28086	0.58168
1340.35229	0.58247
1338.42373	0.58206
1336.49517	0.57980
1334.56660	0.57753
1332.63804	0.57620
1330.70947	0.57555
1328.78091	0.57524
1326.85234	0.57511
1324.92378	0.57517
1322.99521	0.57542
1321.06665	0.57572
1319.13809	0.57591
1317.20952	0.57564
1315.28096	0.57487
1313.35239	0.57396
1311.42383	0.57299
1309.49526	0.57190
1307.56670	0.57074
1305.63813	0.56962
1303.70957	0.56871
1301.78101	0.56793
1299.85244	0.56700
1297.92388	0.56595
1295.99531	0.56486
1294.06675	0.56374
1292.13818	0.56281
1290.20962	0.56210
1288.28105	0.56131
1286.35249	0.56028
1284.42393	0.55917
1282.49536	0.55821
1280.56680	0.55730
1278.63823	0.55626
1276.70967	0.55518
1274.78110	0.55434
1272.85254	0.55385
1270.92397	0.55352
1268.99541	0.55307
1267.06685	0.55252
1265.13828	0.55180
1263.20972	0.55101
1261.28115	0.55042
1259.35259	0.54985
1257.42402	0.54916
1255.49546	0.54862
1253.56689	0.54831
1251.63833	0.54809
1249.70977	0.54797
1247.78120	0.54785
1245.85264	0.54758
1243.92407	0.54718
1241.99551	0.54663
1240.06694	0.54576
1238.13838	0.54455
1236.20981	0.54321
1234.28125	0.54180
1232.35269	0.54033
1230.42412	0.53895
1228.49556	0.53770
1226.56699	0.53653
1224.63843	0.53536
1222.70986	0.53405
1220.78130	0.53272
1218.85273	0.53163
1216.92417	0.53073
1214.99561	0.52988
1213.06704	0.52905
1211.13848	0.52823
1209.20991	0.52758
1207.28135	0.52712
1205.35278	0.52662
1203.42422	0.52603
1201.49565	0.52537
1199.56709	0.52468
1197.63853	0.52399
1195.70996	0.52323
1193.78140	0.52243
1191.85283	0.52168
1189.92427	0.52108
1187.99570	0.52074
1186.06714	0.52063
1184.13857	0.52058
1182.21001	0.52070
1180.28145	0.52126
1178.35288	0.52224
1176.42432	0.52346
1174.49575	0.52466
1172.56719	0.52564
1170.63862	0.52632
1168.71006	0.52674
1166.78149	0.52695
1164.85293	0.52731
1162.92437	0.52787
1160.99580	0.52824
1159.06724	0.52820
1157.13867	0.52788
1155.21011	0.52723
1153.28154	0.52608
1151.35298	0.52442
1149.42441	0.52227
1147.49585	0.51985
1145.56729	0.51748
1143.63872	0.51512
1141.71016	0.51268
1139.78159	0.51046
1137.85303	0.50885
1135.92446	0.50769
1133.99590	0.50672
1132.06733	0.50593
1130.13877	0.50519
1128.21021	0.50446
1126.28164	0.50373
1124.35308	0.50281
1122.42451	0.50182
1120.49595	0.50116
1118.56738	0.50101
1116.63882	0.50123
1114.71025	0.50171
1112.78169	0.50244
1110.85312	0.50317
1108.92456	0.50375
1106.99600	0.50454
1105.06743	0.50574
1103.13887	0.50703
1101.21030	0.50811
1099.28174	0.50933
1097.35317	0.51136
1095.42461	0.51437
1093.49604	0.51819
1091.56748	0.52278
1089.63892	0.52818
1087.71035	0.53464
1085.78179	0.54216
1083.85322	0.54996
1081.92466	0.55719
1079.99609	0.56291
1078.06753	0.56613
1076.13896	0.56651
1074.21040	0.56412
1072.28184	0.55936
1070.35327	0.55311
1068.42471	0.54627
1066.49614	0.53945
1064.56758	0.53314
1062.63901	0.52761
1060.71045	0.52282
1058.78188	0.51864
1056.85332	0.51485
1054.92476	0.51147
1052.99619	0.50868
1051.06763	0.50630
1049.13906	0.50432
1047.21050	0.50314
1045.28193	0.50264
1043.35337	0.50236
1041.42480	0.50224
1039.49624	0.50241
1037.56768	0.50258
1035.63911	0.50219
1033.71055	0.50138
1031.78198	0.50061
1029.85342	0.49972
1027.92485	0.49870
1025.99629	0.49798
1024.06772	0.49757
1022.13916	0.49731
1020.21060	0.49726
1018.28203	0.49738
1016.35347	0.49744
1014.42490	0.49740
1012.49634	0.49734
1010.56777	0.49752
1008.63921	0.49802
1006.71064	0.49880
1004.78208	0.50013
1002.85352	0.50229
1000.92495	0.50497
998.99639	0.50800
997.06782	0.51159
995.13926	0.51560
993.21069	0.51938
991.28213	0.52247
989.35356	0.52468
987.42500	0.52589
985.49644	0.52638
983.56787	0.52672
981.63931	0.52725
979.71074	0.52821
977.78218	0.52993
975.85361	0.53223
973.92505	0.53463
971.99648	0.53720
970.06792	0.54021
968.13936	0.54386
966.21079	0.54825
964.28223	0.55301
962.35366	0.55768
960.42510	0.56237
958.49653	0.56749
956.56797	0.57323
954.63940	0.57932
952.71084	0.58541
950.78228	0.59145
948.85371	0.59760
946.92515	0.60403
944.99658	0.61058
943.06802	0.61695
941.13945	0.62293
939.21089	0.62854
937.28232	0.63427
935.35376	0.64019
933.42520	0.64585
931.49663	0.65134
929.56807	0.65709
927.63950	0.66326
925.71094	0.66977
923.78237	0.67663
921.85381	0.68353
919.92524	0.68994
917.99668	0.69637
916.06812	0.70362
914.13955	0.71173
912.21099	0.72028
910.28242	0.72919
908.35386	0.73815
906.42529	0.74659
904.49673	0.75496
902.56816	0.76387
900.63960	0.77295
898.71104	0.78201
896.78247	0.79118
894.85391	0.80038
892.92534	0.80991
890.99678	0.82024
889.06821	0.83125
887.13965	0.84276
885.21108	0.85457
883.28252	0.86600
881.35396	0.87698
879.42539	0.88855
877.49683	0.90080
875.56826	0.91287
873.63970	0.92503
871.71113	0.93825
869.78257	0.95160
867.85400	0.96310
865.92544	0.97233
863.99687	0.98124
862.06831	0.99190
860.13975	1.00314
858.21118	1.01361
856.28262	1.02414
854.35405	1.03556
852.42549	1.04815
850.49692	1.06155
848.56836	1.07410
846.63979	1.08408
844.71123	1.09315
842.78267	1.10387
840.85410	1.11608
838.92554	1.12930
836.99697	1.14140
835.06841	1.15051
833.13984	1.15941
831.21128	1.17072
829.28271	1.18565
827.35415	1.20386
825.42559	1.22217
823.49702	1.23997
821.56846	1.25601
819.63989	1.26448
817.71133	1.26661
815.78276	1.27327
813.85420	1.28501
811.92563	1.30176
809.99707	1.32926
808.06851	1.35696
806.13994	1.37510
804.21138	1.38681
802.28281	1.40540
800.35425	1.44121
798.42568	1.47234
796.49712	1.46554
794.56855	1.44195
792.63999	1.45498
790.71143	1.53268
788.78286	1.69354
786.85430	1.91275
784.92573	1.99277
782.99717	1.82375
781.06860	1.69096
779.14004	1.73394
777.21147	2.04486
775.28291	2.14694
773.35435	1.95182
771.42578	2.11863
769.49722	2.38273
767.56865	2.12922
765.64009	1.66491
763.71152	1.44153
761.78296	1.40237
759.85439	1.37599
757.92583	1.29195
755.99727	1.20741
754.06870	1.15305
752.14014	1.17855
750.21157	1.15240
748.28301	1.03911
746.35444	0.97451
744.42588	0.97505
742.49731	1.01573
740.56875	1.02654
738.64019	0.95046
736.71162	0.85582
734.78306	0.77323
732.85449	0.69352
730.92593	0.61979
728.99736	0.52277
727.06880	0.39601
725.14023	0.28199
723.21167	0.22180
721.28311	0.20453
719.35454	0.18349
717.42598	0.12725
715.49741	0.01715
713.56885	-0.04074
711.64028	-0.05167
709.71172	-0.11015
707.78315	-0.09048
705.85459	0.02368
703.92603	0.04298
701.99746	-0.03174
700.06890	-0.08525
698.14033	-0.07381
696.21177	-0.00070
694.28320	0.03140
692.35464	0.01578
690.42607	0.06881
688.49751	0.24065
686.56895	0.31409
684.64038	0.18746
682.71182	0.11451
680.78325	0.13267
678.85469	0.15689
676.92612	0.06985
674.99756	-0.05659
673.06899	-0.13438
671.14043	-0.12636
669.21187	-0.04711
667.28330	0.01820
665.35474	0.00581
663.42617	-0.05277
661.49761	-0.05209
659.56904	-0.00923
657.64048	0.05040
655.71191	0.09147
653.78335	0.07089
651.85479	0.02526
649.92622	0.01806
647.99766	0.06385
646.06909	0.12226
644.14053	0.16865
642.21196	0.17660
640.28340	0.11815
638.35483	0.02826
636.42627	-0.01498
634.49771	-0.00884
632.56914	-0.02984
630.64058	-0.08509
628.71201	-0.08922
626.78345	-0.02408
624.85488	0.03461
622.92632	0.04992
620.99775	0.06002
619.06919	0.09164
617.14062	0.12519
615.21206	0.14421
613.28350	0.12950
611.35493	0.08440
609.42637	0.01351
607.49780	-0.01203
605.56924	0.02169
603.64067	0.04864
601.71211	0.06850
599.78354	0.08876
597.85498	0.11809
595.92642	0.18169
593.99785	0.20356
592.06929	0.15170
590.14072	0.14456
588.21216	0.13052
586.28359	0.05580
584.35503	-0.04039
582.42646	-0.06911
580.49790	-0.00839
578.56934	0.06244
576.64077	0.09972
574.71221	0.09894
572.78364	0.05724
570.85508	0.04015
568.92651	0.09532
566.99795	0.12070
565.06938	0.07364
563.14082	0.06996
561.21226	0.17247
559.28369	0.23720
557.35513	0.17963
555.42656	0.11440
553.49800	0.04721
551.56943	-0.01550
549.64087	-0.04662
547.71230	-0.04735
545.78374	-0.03795
543.85518	-0.04016
541.92661	-0.05875
539.99805	-0.05561
538.06948	-0.02980
536.14092	-0.00443
534.21235	0.03369
532.28379	0.08094
530.35522	0.11735
528.42666	0.13587
526.49810	0.10186
524.56953	0.04003
522.64097	0.02660
520.71240	0.04415
518.78384	0.05960
516.85527	0.07103
514.92671	0.07471
512.99814	0.08642
511.06958	0.12392
509.14102	0.14852
507.21245	0.12638
505.28389	0.09133
503.35532	0.06686
501.42676	0.04405
499.49819	0.02328
