3997.91411	0.08628
3995.98555	0.08645
3994.05698	0.08698
3992.12842	0.08755
3990.19985	0.08776
3988.27129	0.08789
3986.34272	0.08822
3984.41416	0.08844
3982.48560	0.08843
3980.55703	0.08870
3978.62847	0.08932
3976.69990	0.08981
3974.77134	0.08996
3972.84277	0.08991
3970.91421	0.09000
3968.98564	0.09031
3967.05708	0.09057
3965.12852	0.09070
3963.19995	0.09074
3961.27139	0.09075
3959.34282	0.09080
3957.41426	0.09074
3955.48569	0.09063
3953.55713	0.09066
3951.62856	0.09086
3949.70000	0.09138
3947.77144	0.09176
3945.84287	0.09144
3943.91431	0.09109
3941.98574	0.09103
3940.05718	0.09081
3938.12861	0.09082
3936.20005	0.09105
3934.27148	0.09096
3932.34292	0.09083
3930.41436	0.09104
3928.48579	0.09119
3926.55723	0.09100
3924.62866	0.09069
3922.70010	0.09056
3920.77153	0.09073
3918.84297	0.09082
3916.91440	0.09039
3914.98584	0.08980
3913.05728	0.08940
3911.12871	0.08902
3909.20015	0.08880
3907.27158	0.08910
3905.34302	0.09008
3903.41445	0.09132
3901.48589	0.09175
3899.55732	0.09152
3897.62876	0.09105
3895.70020	0.09004
3893.77163	0.08908
3891.84307	0.08894
3889.91450	0.08921
3887.98594	0.08939
3886.05737	0.09018
3884.12881	0.09108
3882.20024	0.09062
3880.27168	0.08974
3878.34312	0.08965
3876.41455	0.09008
3874.48599	0.09072
3872.55742	0.09152
3870.62886	0.09261
3868.70029	0.09380
3866.77173	0.09374
3864.84316	0.09329
3862.91460	0.09362
3860.98604	0.09399
3859.05747	0.09396
3857.12891	0.09390
3855.20034	0.09446
3853.27178	0.09685
3851.34321	0.09938
3849.41465	0.09821
3847.48608	0.09597
3845.55752	0.09472
3843.62896	0.09497
3841.70039	0.09647
3839.77183	0.09845
3837.84326	0.10044
3835.91470	0.10162
3833.98613	0.10157
3832.05757	0.10122
3830.12900	0.10100
3828.20044	0.10109
3826.27187	0.10200
3824.34331	0.10321
3822.41475	0.10430
3820.48618	0.10597
3818.55762	0.10714
3816.62905	0.10762
3814.70049	0.10820
3812.77192	0.10808
3810.84336	0.10794
3808.91479	0.10864
3806.98623	0.11025
3805.05767	0.11202
3803.12910	0.11329
3801.20054	0.11524
3799.27197	0.11701
3797.34341	0.11720
3795.41484	0.11745
3793.48628	0.11788
3791.55771	0.11838
3789.62915	0.11953
3787.70059	0.12116
3785.77202	0.12295
3783.84346	0.12471
3781.91489	0.12624
3779.98633	0.12806
3778.05776	0.13014
3776.12920	0.13121
3774.20063	0.13191
3772.27207	0.13350
3770.34351	0.13595
3768.41494	0.13821
3766.48638	0.13953
3764.55781	0.14078
3762.62925	0.14243
3760.70068	0.14469
3758.77212	0.14794
3756.84355	0.15094
3754.91499	0.15269
3752.98643	0.15454
3751.05786	0.15825
3749.12930	0.16310
3747.20073	0.16583
3745.27217	0.16804
3743.34360	0.17227
3741.41504	0.17584
3739.48647	0.17769
3737.55791	0.18043
3735.62935	0.18563
3733.70078	0.19179
3731.77222	0.19555
3729.84365	0.19806
3727.91509	0.20144
3725.98652	0.20695
3724.05796	0.21424
3722.12939	0.22160
3720.20083	0.22864
3718.27227	0.23558
3716.34370	0.24267
3714.41514	0.24987
3712.48657	0.25872
3710.55801	0.27171
3708.62944	0.28606
3706.70088	0.29787
3704.77231	0.30877
3702.84375	0.32152
3700.91519	0.33869
3698.98662	0.35747
3697.05806	0.37448
3695.12949	0.39240
3693.20093	0.41191
3691.27236	0.43341
3689.34380	0.46175
3687.41523	0.49674
3685.48667	0.52681
3683.55811	0.55236
3681.62954	0.57990
3679.70098	0.61102
3677.77241	0.64377
3675.84385	0.68338
3673.91528	0.73750
3671.98672	0.78105
3670.05815	0.81947
3668.12959	0.87271
3666.20103	0.92099
3664.27246	0.96111
3662.34390	1.00427
3660.41533	1.05099
3658.48677	1.09729
3656.55820	1.14682
3654.62964	1.20161
3652.70107	1.24715
3650.77251	1.28685
3648.84395	1.34218
3646.91538	1.41033
3644.98682	1.46033
3643.05825	1.49872
3641.12969	1.53828
3639.20112	1.58255
3637.27256	1.62775
3635.34399	1.67136
3633.41543	1.71406
3631.48687	1.75373
3629.55830	1.79410
3627.62974	1.84772
3625.70117	1.89842
3623.77261	1.93254
3621.84404	1.96506
3619.91548	2.00341
3617.98691	2.05075
3616.05835	2.09508
3614.12979	2.13100
3612.20122	2.16945
3610.27266	2.20866
3608.34409	2.24793
3606.41553	2.29010
3604.48696	2.33054
3602.55840	2.36694
3600.62983	2.40515
3598.70127	2.44750
3596.77271	2.48933
3594.84414	2.52967
3592.91558	2.57052
3590.98701	2.61006
3589.05845	2.64814
3587.12988	2.69313
3585.20132	2.74114
3583.27275	2.78160
3581.34419	2.81963
3579.41562	2.86086
3577.48706	2.90446
3575.55850	2.94831
3573.62993	2.99353
3571.70137	3.03754
3569.77280	3.07877
3567.84424	3.12162
3565.91567	3.17263
3563.98711	3.22208
3562.05854	3.26271
3560.12998	3.30325
3558.20142	3.34749
3556.27285	3.39273
3554.34429	3.43629
3552.41572	3.48183
3550.48716	3.53069
3548.55859	3.57837
3546.63003	3.62406
3544.70146	3.67296
3542.77290	3.72357
3540.84434	3.77156
3538.91577	3.81876
3536.98721	3.86619
3535.05864	3.91540
3533.13008	3.96632
3531.20151	4.01836
3529.27295	4.06924
3527.34438	4.11641
3525.41582	4.15888
3523.48726	4.20193
3521.55869	4.25400
3519.63013	4.30949
3517.70156	4.35804
3515.77300	4.40076
3513.84443	4.44560
3511.91587	4.49385
3509.98730	4.54470
3508.05874	4.59795
3506.13018	4.64914
3504.20161	4.69796
3502.27305	4.74535
3500.34448	4.79071
3498.41592	4.83944
3496.48735	4.89034
3494.55879	4.93657
3492.63022	4.98267
3490.70166	5.03350
3488.77310	5.08779
3486.84453	5.14149
3484.91597	5.18889
3482.98740	5.22945
3481.05884	5.26901
3479.13027	5.31523
3477.20171	5.37063
3475.27314	5.42753
3473.34458	5.47795
3471.41602	5.52528
3469.48745	5.57564
3467.55889	5.62572
3465.63032	5.67238
3463.70176	5.72570
3461.77319	5.78477
3459.84463	5.83785
3457.91606	5.88618
3455.98750	5.94201
3454.05894	6.00273
3452.13037	6.04924
3450.20181	6.08465
3448.27324	6.12895
3446.34468	6.18473
3444.41611	6.23348
3442.48755	6.28019
3440.55898	6.33615
3438.63042	6.39138
3436.70186	6.43774
3434.77329	6.47184
3432.84473	6.49430
3430.91616	6.52671
3428.98760	6.59713
3427.05903	6.68260
3425.13047	6.75216
3423.20190	6.79679
3421.27334	6.82583
3419.34478	6.86797
3417.41621	6.92267
3415.48765	6.98186
3413.55908	7.03991
3411.63052	7.07487
3409.70195	7.09844
3407.77339	7.15557
3405.84482	7.23648
3403.91626	7.29296
3401.98770	7.31409
3400.05913	7.35492
3398.13057	7.41763
3396.20200	7.45045
3394.27344	7.47524
3392.34487	7.50671
3390.41631	7.54932
3388.48774	7.60980
3386.55918	7.65297
3384.63062	7.63365
3382.70205	7.60337
3380.77349	7.63748
3378.84492	7.71756
3376.91636	7.79617
3374.98779	7.87595
3373.05923	7.96631
3371.13066	7.99694
3369.20210	7.99421
3367.27354	8.04991
3365.34497	8.13204
3363.41641	8.09541
3361.48784	7.97829
3359.55928	7.95024
3357.63071	8.01665
3355.70215	8.11652
3353.77358	8.16266
3351.84502	8.14335
3349.91646	8.10161
3347.98789	8.07817
3346.05933	8.13549
3344.13076	8.25253
3342.20220	8.29592
3340.27363	8.23164
3338.34507	8.17843
3336.41650	8.16630
3334.48794	8.22598
3332.55937	8.31825
3330.63081	8.39647
3328.70225	8.49069
3326.77368	8.53677
3324.84512	8.54163
3322.91655	8.56912
3320.98799	8.55644
3319.05942	8.46080
3317.13086	8.41106
3315.20229	8.45522
3313.27373	8.54096
3311.34517	8.55532
3309.41660	8.42753
3307.48804	8.29950
3305.55947	8.30177
3303.63091	8.41640
3301.70234	8.55727
3299.77378	8.69769
3297.84521	8.72730
3295.91665	8.62986
3293.98809	8.55379
3292.05952	8.53895
3290.13096	8.57439
3288.20239	8.61047
3286.27383	8.56783
3284.34526	8.48536
3282.41670	8.48417
3280.48813	8.54588
3278.55957	8.63200
3276.63101	8.67118
3274.70244	8.57590
3272.77388	8.49977
3270.84531	8.59679
3268.91675	8.80022
3266.98818	8.89392
3265.05962	8.75155
3263.13105	8.51012
3261.20249	8.43723
3259.27393	8.57079
3257.34536	8.76790
3255.41680	8.91251
3253.48823	8.87304
3251.55967	8.69328
3249.63110	8.56505
3247.70254	8.56688
3245.77397	8.66080
3243.84541	8.67002
3241.91685	8.50040
3239.98828	8.35236
3238.05972	8.34901
3236.13115	8.50654
3234.20259	8.75495
3232.27402	8.77930
3230.34546	8.54009
3228.41689	8.39421
3226.48833	8.44584
3224.55977	8.52941
3222.63120	8.47609
3220.70264	8.35787
3218.77407	8.28013
3216.84551	8.17708
3214.91694	8.08857
3212.98838	8.14039
3211.05981	8.26329
3209.13125	8.31424
3207.20269	8.28493
3205.27412	8.21028
3203.34556	8.15604
3201.41699	8.18355
3199.48843	8.19582
3197.55986	8.13471
3195.63130	8.07793
3193.70273	8.01489
3191.77417	7.95558
3189.84561	7.92994
3187.91704	7.90485
3185.98848	7.86533
3184.05991	7.80137
3182.13135	7.70951
3180.20278	7.60163
3178.27422	7.48916
3176.34565	7.39929
3174.41709	7.31696
3172.48853	7.24136
3170.55996	7.20750
3168.63140	7.17558
3166.70283	7.09455
3164.77427	7.00542
3162.84570	6.95444
3160.91714	6.92269
3158.98857	6.87110
3157.06001	6.79586
3155.13145	6.71183
3153.20288	6.62408
3151.27432	6.55101
3149.34575	6.49917
3147.41719	6.45096
3145.48862	6.40182
3143.56006	6.34057
3141.63149	6.26108
3139.70293	6.17618
3137.77437	6.08533
3135.84580	5.98691
3133.91724	5.90450
3131.98867	5.85369
3130.06011	5.80545
3128.13154	5.73177
3126.20298	5.64891
3124.27441	5.57232
3122.34585	5.49570
3120.41729	5.42356
3118.48872	5.36014
3116.56016	5.29273
3114.63159	5.21888
3112.70303	5.15061
3110.77446	5.08652
3108.84590	5.01957
3106.91733	4.95070
3104.98877	4.88074
3103.06021	4.81123
3101.13164	4.74017
3099.20308	4.66720
3097.27451	4.59719
3095.34595	4.53269
3093.41738	4.47234
3091.48882	4.40957
3089.56025	4.34120
3087.63169	4.27200
3085.70312	4.20763
3083.77456	4.14663
3081.84600	4.08492
3079.91743	4.02415
3077.98887	3.96477
3076.06030	3.90213
3074.13174	3.83669
3072.20317	3.77632
3070.27461	3.72199
3068.34604	3.66760
3066.41748	3.61161
3064.48892	3.55512
3062.56035	3.49851
3060.63179	3.44169
3058.70322	3.38500
3056.77466	3.32964
3054.84609	3.27527
3052.91753	3.22154
3050.98896	3.16915
3049.06040	3.11790
3047.13184	3.06776
3045.20327	3.01827
3043.27471	2.96792
3041.34614	2.91655
3039.41758	2.86653
3037.48901	2.81918
3035.56045	2.77281
3033.63188	2.72615
3031.70332	2.67871
3029.77476	2.63140
3027.84619	2.58722
3025.91763	2.54522
3023.98906	2.50245
3022.06050	2.45927
3020.13193	2.41655
3018.20337	2.37473
3016.27480	2.33415
3014.34624	2.29441
3012.41768	2.25497
3010.48911	2.21591
3008.56055	2.17765
3006.63198	2.14020
3004.70342	2.10319
3002.77485	2.06677
3000.84629	2.03175
2998.91772	1.99803
2996.98916	1.96465
2995.06060	1.93128
2993.13203	1.89865
2991.20347	1.86748
2989.27490	1.83714
2987.34634	1.80708
2985.41777	1.77748
2983.48921	1.74790
2981.56064	1.71828
2979.63208	1.68944
2977.70352	1.66199
2975.77495	1.63570
2973.84639	1.60994
2971.91782	1.58420
2969.98926	1.55845
2968.06069	1.53317
2966.13213	1.50863
2964.20356	1.48451
2962.27500	1.46033
2960.34644	1.43578
2958.41787	1.41133
2956.48931	1.38754
2954.56074	1.36416
2952.63218	1.34083
2950.70361	1.31770
2948.77505	1.29477
2946.84648	1.27168
2944.91792	1.24887
2942.98936	1.22740
2941.06079	1.20723
2939.13223	1.18749
2937.20366	1.16760
2935.27510	1.14758
2933.34653	1.12806
2931.41797	1.10935
2929.48940	1.09095
2927.56084	1.07206
2925.63228	1.05272
2923.70371	1.03433
2921.77515	1.01713
2919.84658	0.99972
2917.91802	0.98172
2915.98945	0.96357
2914.06089	0.94537
2912.13232	0.92774
2910.20376	0.91124
2908.27520	0.89547
2906.34663	0.87969
2904.41807	0.86388
2902.48950	0.84891
2900.56094	0.83500
2898.63237	0.82156
2896.70381	0.80822
2894.77524	0.79490
2892.84668	0.78162
2890.91812	0.76868
2888.98955	0.75638
2887.06099	0.74474
2885.13242	0.73373
2883.20386	0.72332
2881.27529	0.71314
2879.34673	0.70263
2877.41816	0.69192
2875.48960	0.68169
2873.56104	0.67172
2871.63247	0.66113
2869.70391	0.64985
2867.77534	0.63842
2865.84678	0.62695
2863.91821	0.61551
2861.98965	0.60441
2860.06108	0.59364
2858.13252	0.58331
2856.20396	0.57365
2854.27539	0.56456
2852.34683	0.55559
2850.41826	0.54658
2848.48970	0.53761
2846.56113	0.52848
2844.63257	0.51957
2842.70400	0.51152
2840.77544	0.50412
2838.84687	0.49700
2836.91831	0.49015
2834.98975	0.48342
2833.06118	0.47691
2831.13262	0.47080
2829.20405	0.46469
2827.27549	0.45842
2825.34692	0.45222
2823.41836	0.44595
2821.48979	0.43958
2819.56123	0.43340
2817.63267	0.42743
2815.70410	0.42152
2813.77554	0.41568
2811.84697	0.40987
2809.91841	0.40408
2807.98984	0.39843
2806.06128	0.39295
2804.13271	0.38753
2802.20415	0.38202
2800.27559	0.37669
2798.34702	0.37179
2796.41846	0.36695
2794.48989	0.36190
2792.56133	0.35689
2790.63276	0.35218
2788.70420	0.34769
2786.77563	0.34330
2784.84707	0.33904
2782.91851	0.33477
2780.98994	0.33036
2779.06138	0.32594
2777.13281	0.32162
2775.20425	0.31743
2773.27568	0.31339
2771.34712	0.30952
2769.41855	0.30578
2767.48999	0.30208
2765.56143	0.29843
2763.63286	0.29489
2761.70430	0.29147
2759.77573	0.28808
2757.84717	0.28472
2755.91860	0.28151
2753.99004	0.27848
2752.06147	0.27544
2750.13291	0.27224
2748.20435	0.26899
2746.27578	0.26589
2744.34722	0.26309
2742.41865	0.26044
2740.49009	0.25768
2738.56152	0.25488
2736.63296	0.25228
2734.70439	0.24977
2732.77583	0.24721
2730.84727	0.24474
2728.91870	0.24241
2726.99014	0.24016
2725.06157	0.23796
2723.13301	0.23573
2721.20444	0.23340
2719.27588	0.23098
2717.34731	0.22859
2715.41875	0.22647
2713.49019	0.22461
2711.56162	0.22274
2709.63306	0.22088
2707.70449	0.21917
2705.77593	0.21744
2703.84736	0.21564
2701.91880	0.21395
2699.99023	0.21253
2698.06167	0.21115
2696.13311	0.20955
2694.20454	0.20793
2692.27598	0.20642
2690.34741	0.20496
2688.41885	0.20357
2686.49028	0.20228
2684.56172	0.20103
2682.63315	0.19977
2680.70459	0.19847
2678.77603	0.19715
2676.84746	0.19591
2674.91890	0.19479
2672.99033	0.19358
2671.06177	0.19228
2669.13320	0.19115
2667.20464	0.19022
2665.27607	0.18926
2663.34751	0.18812
2661.41895	0.18698
2659.49038	0.18610
2657.56182	0.18539
2655.63325	0.18458
2653.70469	0.18376
2651.77612	0.18316
2649.84756	0.18258
2647.91899	0.18185
2645.99043	0.18114
2644.06187	0.18052
2642.13330	0.17988
2640.20474	0.17925
2638.27617	0.17866
2636.34761	0.17808
2634.41904	0.17746
2632.49048	0.17686
2630.56191	0.17634
2628.63335	0.17584
2626.70479	0.17547
2624.77622	0.17527
2622.84766	0.17509
2620.91909	0.17483
2618.99053	0.17440
2617.06196	0.17391
2615.13340	0.17364
2613.20483	0.17354
2611.27627	0.17339
2609.34771	0.17314
2607.41914	0.17284
2605.49058	0.17264
2603.56201	0.17258
2601.63345	0.17250
2599.70488	0.17243
2597.77632	0.17261
2595.84775	0.17288
2593.91919	0.17291
2591.99062	0.17283
2590.06206	0.17294
2588.13350	0.17322
2586.20493	0.17340
2584.27637	0.17347
2582.34780	0.17359
2580.41924	0.17380
2578.49067	0.17404
2576.56211	0.17420
2574.63354	0.17426
2572.70498	0.17444
2570.77642	0.17489
2568.84785	0.17541
2566.91929	0.17582
2564.99072	0.17619
2563.06216	0.17661
2561.13359	0.17707
2559.20503	0.17753
2557.27646	0.17787
2555.34790	0.17808
2553.41934	0.17838
2551.49077	0.17886
2549.56221	0.17942
2547.63364	0.18003
2545.70508	0.18069
2543.77651	0.18136
2541.84795	0.18193
2539.91938	0.18237
2537.99082	0.18288
2536.06226	0.18370
2534.13369	0.18468
2532.20513	0.18550
2530.27656	0.18609
2528.34800	0.18660
2526.41943	0.18714
2524.49087	0.18783
2522.56230	0.18862
2520.63374	0.18933
2518.70518	0.18996
2516.77661	0.19063
2514.84805	0.19145
2512.91948	0.19236
2510.99092	0.19316
2509.06235	0.19383
2507.13379	0.19452
2505.20522	0.19535
2503.27666	0.19630
2501.34810	0.19722
2499.41953	0.19795
2497.49097	0.19858
2495.56240	0.19932
2493.63384	0.20014
2491.70527	0.20101
2489.77671	0.20189
2487.84814	0.20271
2485.91958	0.20360
2483.99102	0.20462
2482.06245	0.20561
2480.13389	0.20648
2478.20532	0.20722
2476.27676	0.20798
2474.34819	0.20882
2472.41963	0.20966
2470.49106	0.21053
2468.56250	0.21143
2466.63394	0.21226
2464.70537	0.21318
2462.77681	0.21426
2460.84824	0.21530
2458.91968	0.21622
2456.99111	0.21708
2455.06255	0.21792
2453.13398	0.21884
2451.20542	0.21988
2449.27686	0.22092
2447.34829	0.22195
2445.41973	0.22293
2443.49116	0.22387
2441.56260	0.22478
2439.63403	0.22573
2437.70547	0.22670
2435.77690	0.22769
2433.84834	0.22866
2431.91978	0.22962
2429.99121	0.23064
2428.06265	0.23170
2426.13408	0.23275
2424.20552	0.23385
2422.27695	0.23503
2420.34839	0.23619
2418.41982	0.23737
2416.49126	0.23856
2414.56270	0.23961
2412.63413	0.24056
2410.70557	0.24163
2408.77700	0.24292
2406.84844	0.24424
2404.91987	0.24540
2402.99131	0.24651
2401.06274	0.24770
2399.13418	0.24901
2397.20562	0.25036
2395.27705	0.25161
2393.34849	0.25271
2391.41992	0.25388
2389.49136	0.25514
2387.56279	0.25637
2385.63423	0.25751
2383.70566	0.25860
2381.77710	0.25970
2379.84854	0.26095
2377.91997	0.26225
2375.99141	0.26324
2374.06284	0.26402
2372.13428	0.26523
2370.20571	0.26709
2368.27715	0.26880
2366.34858	0.27036
2364.42002	0.27284
2362.49146	0.27569
2360.56289	0.27703
2358.63433	0.27679
2356.70576	0.27712
2354.77720	0.27921
2352.84863	0.28192
2350.92007	0.28332
2348.99150	0.28357
2347.06294	0.28389
2345.13437	0.28509
2343.20581	0.28725
2341.27725	0.28950
2339.34868	0.29156
2337.42012	0.29349
2335.49155	0.29511
2333.56299	0.29645
2331.63442	0.29823
2329.70586	0.30042
2327.77729	0.30227
2325.84873	0.30387
2323.92017	0.30551
2321.99160	0.30729
2320.06304	0.30922
2318.13447	0.31096
2316.20591	0.31239
2314.27734	0.31387
2312.34878	0.31560
2310.42021	0.31775
2308.49165	0.32008
2306.56309	0.32221
2304.63452	0.32399
2302.70596	0.32566
2300.77739	0.32755
2298.84883	0.32960
2296.92026	0.33163
2294.99170	0.33358
2293.06313	0.33551
2291.13457	0.33741
2289.20601	0.33930
2287.27744	0.34128
2285.34888	0.34321
2283.42031	0.34501
2281.49175	0.34690
2279.56318	0.34901
2277.63462	0.35118
2275.70605	0.35330
2273.77749	0.35537
2271.84893	0.35738
2269.92036	0.35943
2267.99180	0.36160
2266.06323	0.36385
2264.13467	0.36613
2262.20610	0.36832
2260.27754	0.37041
2258.34897	0.37260
2256.42041	0.37481
2254.49185	0.37696
2252.56328	0.37916
2250.63472	0.38138
2248.70615	0.38353
2246.77759	0.38568
2244.84902	0.38787
2242.92046	0.39013
2240.99189	0.39259
2239.06333	0.39507
2237.13477	0.39729
2235.20620	0.39935
2233.27764	0.40151
2231.34907	0.40377
2229.42051	0.40605
2227.49194	0.40831
2225.56338	0.41052
2223.63481	0.41282
2221.70625	0.41522
2219.77769	0.41750
2217.84912	0.41963
2215.92056	0.42178
2213.99199	0.42397
2212.06343	0.42618
2210.13486	0.42842
2208.20630	0.43066
2206.27773	0.43281
2204.34917	0.43483
2202.42061	0.43685
2200.49204	0.43891
2198.56348	0.44095
2196.63491	0.44295
2194.70635	0.44492
2192.77778	0.44680
2190.84922	0.44872
2188.92065	0.45077
2186.99209	0.45275
2185.06353	0.45453
2183.13496	0.45620
2181.20640	0.45783
2179.27783	0.45944
2177.34927	0.46105
2175.42070	0.46273
2173.49214	0.46439
2171.56357	0.46582
2169.63501	0.46714
2167.70645	0.46849
2165.77788	0.46975
2163.84932	0.47087
2161.92075	0.47203
2159.99219	0.47325
2158.06362	0.47434
2156.13506	0.47519
2154.20649	0.47585
2152.27793	0.47652
2150.34937	0.47728
2148.42080	0.47800
2146.49224	0.47857
2144.56367	0.47893
2142.63511	0.47920
2140.70654	0.47953
2138.77798	0.47993
2136.84941	0.48020
2134.92085	0.48021
2132.99229	0.48012
2131.06372	0.47996
2129.13516	0.47970
2127.20659	0.47942
2125.27803	0.47909
2123.34946	0.47859
2121.42090	0.47798
2119.49233	0.47733
2117.56377	0.47663
2115.63521	0.47585
2113.70664	0.47498
2111.77808	0.47413
2109.84951	0.47324
2107.92095	0.47213
2105.99238	0.47079
2104.06382	0.46948
2102.13525	0.46826
2100.20669	0.46697
2098.27812	0.46551
2096.34956	0.46391
2094.42100	0.46214
2092.49243	0.46034
2090.56387	0.45868
2088.63530	0.45695
2086.70674	0.45508
2084.77817	0.45315
2082.84961	0.45112
2080.92104	0.44891
2078.99248	0.44670
2077.06392	0.44459
2075.13535	0.44238
2073.20679	0.44007
2071.27822	0.43770
2069.34966	0.43531
2067.42109	0.43294
2065.49253	0.43059
2063.56396	0.42824
2061.63540	0.42584
2059.70684	0.42322
2057.77827	0.42038
2055.84971	0.41756
2053.92114	0.41490
2051.99258	0.41230
2050.06401	0.40965
2048.13545	0.40698
2046.20688	0.40428
2044.27832	0.40156
2042.34976	0.39884
2040.42119	0.39599
2038.49263	0.39299
2036.56406	0.39008
2034.63550	0.38729
2032.70693	0.38449
2030.77837	0.38161
2028.84980	0.37870
2026.92124	0.37587
2024.99268	0.37311
2023.06411	0.37030
2021.13555	0.36737
2019.20698	0.36445
2017.27842	0.36169
2015.34985	0.35889
2013.42129	0.35591
2011.49272	0.35297
2009.56416	0.35020
2007.63560	0.34745
2005.70703	0.34455
2003.77847	0.34164
2001.84990	0.33894
1999.92134	0.33637
1997.99277	0.33374
1996.06421	0.33107
1994.13564	0.32852
1992.20708	0.32605
1990.27852	0.32348
1988.34995	0.32092
1986.42139	0.31846
1984.49282	0.31603
1982.56426	0.31356
1980.63569	0.31108
1978.70713	0.30861
1976.77856	0.30619
1974.85000	0.30388
1972.92144	0.30169
1970.99287	0.29964
1969.06431	0.29772
1967.13574	0.29579
1965.20718	0.29363
1963.27861	0.29138
1961.35005	0.28932
1959.42148	0.28740
1957.49292	0.28543
1955.56436	0.28347
1953.63579	0.28168
1951.70723	0.28005
1949.77866	0.27842
1947.85010	0.27670
1945.92153	0.27507
1943.99297	0.27364
1942.06440	0.27224
1940.13584	0.27067
1938.20728	0.26904
1936.27871	0.26754
1934.35015	0.26619
1932.42158	0.26493
1930.49302	0.26368
1928.56445	0.26249
1926.63589	0.26138
1924.70732	0.26042
1922.77876	0.25959
1920.85020	0.25865
1918.92163	0.25760
1916.99307	0.25662
1915.06450	0.25568
1913.13594	0.25483
1911.20737	0.25416
1909.27881	0.25350
1907.35024	0.25275
1905.42168	0.25194
1903.49312	0.25129
1901.56455	0.25077
1899.63599	0.25026
1897.70742	0.24979
1895.77886	0.24939
1893.85029	0.24903
1891.92173	0.24865
1889.99316	0.24846
1888.06460	0.24828
1886.13604	0.24801
1884.20747	0.24775
1882.27891	0.24741
1880.35034	0.24709
1878.42178	0.24699
1876.49321	0.24703
1874.56465	0.24702
1872.63608	0.24714
1870.70752	0.24750
1868.77896	0.24807
1866.85039	0.24835
1864.92183	0.24818
1862.99326	0.24809
1861.06470	0.24826
1859.13613	0.24862
1857.20757	0.24900
1855.27900	0.24946
1853.35044	0.24993
1851.42187	0.25042
1849.49331	0.25093
1847.56475	0.25159
1845.63618	0.25256
1843.70762	0.25370
1841.77905	0.25448
1839.85049	0.25487
1837.92192	0.25548
1835.99336	0.25628
1834.06479	0.25716
1832.13623	0.25822
1830.20767	0.25983
1828.27910	0.26150
1826.35054	0.26251
1824.42197	0.26359
1822.49341	0.26483
1820.56484	0.26611
1818.63628	0.26757
1816.70771	0.26921
1814.77915	0.27080
1812.85059	0.27248
1810.92202	0.27450
1808.99346	0.27662
1807.06489	0.27861
1805.13633	0.28053
1803.20776	0.28268
1801.27920	0.28516
1799.35063	0.28808
1797.42207	0.29075
1795.49351	0.29321
1793.56494	0.29612
1791.63638	0.29996
1789.70781	0.30355
1787.77925	0.30610
1785.85068	0.30913
1783.92212	0.31285
1781.99355	0.31676
1780.06499	0.32085
1778.13643	0.32521
1776.20786	0.32940
1774.27930	0.33375
1772.35073	0.33960
1770.42217	0.34604
1768.49360	0.35144
1766.56504	0.35668
1764.63647	0.36203
1762.70791	0.36793
1760.77935	0.37548
1758.85078	0.38268
1756.92222	0.38999
1754.99365	0.39807
1753.06509	0.40540
1751.13652	0.41403
1749.20796	0.42489
1747.27939	0.43544
1745.35083	0.44468
1743.42227	0.45440
1741.49370	0.46505
1739.56514	0.47757
1737.63657	0.49011
1735.70801	0.50105
1733.77944	0.51740
1731.85088	0.53687
1729.92231	0.55230
1727.99375	0.56808
1726.06519	0.58503
1724.13662	0.60371
1722.20806	0.62406
1720.27949	0.64269
1718.35093	0.66432
1716.42236	0.69679
1714.49380	0.72791
1712.56523	0.75285
1710.63667	0.77703
1708.70811	0.80303
1706.77954	0.83261
1704.85098	0.86817
1702.92241	0.90001
1700.99385	0.93141
1699.06528	0.97829
1697.13672	1.02132
1695.20815	1.06557
1693.27959	1.10922
1691.35103	1.14433
1689.42246	1.18506
1687.49390	1.22851
1685.56533	1.27001
1683.63677	1.33359
1681.70820	1.40062
1679.77964	1.44335
1677.85107	1.48394
1675.92251	1.53060
1673.99395	1.58829
1672.06538	1.63981
1670.13682	1.69102
1668.20825	1.75894
1666.27969	1.81457
1664.35112	1.86192
1662.42256	1.92112
1660.49399	1.98825
1658.56543	2.03988
1656.63687	2.08100
1654.70830	2.11893
1652.77974	2.17963
1650.85117	2.23808
1648.92261	2.25860
1646.99404	2.28446
1645.06548	2.30951
1643.13691	2.32537
1641.20835	2.33275
1639.27979	2.33828
1637.35122	2.34143
1635.42266	2.34095
1633.49409	2.33332
1631.56553	2.31837
1629.63696	2.30051
1627.70840	2.27192
1625.77983	2.23864
1623.85127	2.19530
1621.92271	2.14318
1619.99414	2.09810
1618.06558	2.05409
1616.13701	1.98964
1614.20845	1.92340
1612.27988	1.87378
1610.35132	1.82242
1608.42275	1.76672
1606.49419	1.71189
1604.56562	1.66134
1602.63706	1.61235
1600.70850	1.56474
1598.77993	1.52076
1596.85137	1.47917
1594.92280	1.43926
1592.99424	1.40133
1591.06567	1.36678
1589.13711	1.33444
1587.20854	1.30462
1585.27998	1.27740
1583.35142	1.25221
1581.42285	1.22944
1579.49429	1.21012
1577.56572	1.19271
1575.63716	1.17161
1573.70859	1.15338
1571.78003	1.14172
1569.85146	1.12989
1567.92290	1.11729
1565.99434	1.10847
1564.06577	1.10226
1562.13721	1.09768
1560.20864	1.09547
1558.28008	1.09538
1556.35151	1.09541
1554.42295	1.09473
1552.49438	1.09405
1550.56582	1.09231
1548.63726	1.08862
1546.70869	1.08280
1544.78013	1.07423
1542.85156	1.06285
1540.92300	1.04627
1538.99443	1.01875
1537.06587	0.99761
1535.13730	0.98339
1533.20874	0.96511
1531.28018	0.94570
1529.35161	0.93142
1527.42305	0.91807
1525.49448	0.90455
1523.56592	0.89312
1521.63735	0.88215
1519.70879	0.87082
1517.78022	0.86121
1515.85166	0.85022
1513.92310	0.83868
1511.99453	0.82860
1510.06597	0.81945
1508.13740	0.81064
1506.20884	0.79700
1504.28027	0.78470
1502.35171	0.77760
1500.42314	0.77147
1498.49458	0.76498
1496.56602	0.75769
1494.63745	0.75068
1492.70889	0.74504
1490.78032	0.73977
1488.85176	0.73378
1486.92319	0.72846
1484.99463	0.72433
1483.06606	0.72097
1481.13750	0.71821
1479.20894	0.71619
1477.28037	0.71496
1475.35181	0.71445
1473.42324	0.71466
1471.49468	0.71449
1469.56611	0.71299
1467.63755	0.71106
1465.70898	0.70949
1463.78042	0.70831
1461.85186	0.70743
1459.92329	0.70699
1457.99473	0.70690
1456.06616	0.70636
1454.13760	0.70458
1452.20903	0.70224
1450.28047	0.69969
1448.35190	0.69717
1446.42334	0.69452
1444.49478	0.69178
1442.56621	0.68924
1440.63765	0.68674
1438.70908	0.68408
1436.78052	0.68095
1434.85195	0.67755
1432.92339	0.67489
1430.99482	0.67317
1429.06626	0.67209
1427.13770	0.67145
1425.20913	0.67151
1423.28057	0.67218
1421.35200	0.67275
1419.42344	0.67315
1417.49487	0.67298
1415.56631	0.67172
1413.63774	0.67057
1411.70918	0.67025
1409.78062	0.67068
1407.85205	0.67135
1405.92349	0.67210
1403.99492	0.67265
1402.06636	0.67244
1400.13779	0.67169
1398.20923	0.67039
1396.28066	0.66811
1394.35210	0.66476
1392.42354	0.66084
1390.49497	0.65705
1388.56641	0.65331
1386.63784	0.64904
1384.70928	0.64456
1382.78071	0.64036
1380.85215	0.63634
1378.92358	0.63278
1376.99502	0.63003
1375.06646	0.62820
1373.13789	0.62711
1371.20933	0.62637
1369.28076	0.62578
1367.35220	0.62501
1365.42363	0.62380
1363.49507	0.62236
1361.56650	0.62082
1359.63794	0.61910
1357.70937	0.61751
1355.78081	0.61617
1353.85225	0.61495
1351.92368	0.61387
1349.99512	0.61299
1348.06655	0.61211
1346.13799	0.61108
1344.20942	0.60998
1342.28086	0.60896
1340.35229	0.60810
1338.42373	0.60728
1336.49517	0.60643
1334.56660	0.60570
1332.63804	0.60527
1330.70947	0.60531
1328.78091	0.60567
1326.85234	0.60609
1324.92378	0.60661
1322.99521	0.60724
1321.06665	0.60780
1319.13809	0.60830
1317.20952	0.60847
1315.28096	0.60821
1313.35239	0.60773
1311.42383	0.60704
1309.49526	0.60621
1307.56670	0.60544
1305.63813	0.60469
1303.70957	0.60376
1301.78101	0.60273
1299.85244	0.60179
1297.92388	0.60084
1295.99531	0.59965
1294.06675	0.59832
1292.13818	0.59693
1290.20962	0.59542
1288.28105	0.59395
1286.35249	0.59268
1284.42393	0.59149
1282.49536	0.59024
1280.56680	0.58900
1278.63823	0.58786
1276.70967	0.58676
1274.78110	0.58569
1272.85254	0.58477
1270.92397	0.58395
1268.99541	0.58317
1267.06685	0.58250
1265.13828	0.58177
1263.20972	0.58089
1261.28115	0.58015
1259.35259	0.57972
1257.42402	0.57930
1255.49546	0.57873
1253.56689	0.57836
1251.63833	0.57834
1249.70977	0.57836
1247.78120	0.57819
1245.85264	0.57784
1243.92407	0.57740
1241.99551	0.57670
1240.06694	0.57547
1238.13838	0.57376
1236.20981	0.57175
1234.28125	0.56969
1232.35269	0.56769
1230.42412	0.56557
1228.49556	0.56342
1226.56699	0.56156
1224.63843	0.55991
1222.70986	0.55815
1220.78130	0.55629
1218.85273	0.55457
1216.92417	0.55321
1214.99561	0.55213
1213.06704	0.55121
1211.13848	0.55058
1209.20991	0.55012
1207.28135	0.54952
1205.35278	0.54875
1203.42422	0.54781
1201.49565	0.54673
1199.56709	0.54578
1197.63853	0.54491
1195.70996	0.54392
1193.78140	0.54314
1191.85283	0.54274
1189.92427	0.54237
1187.99570	0.54183
1186.06714	0.54137
1184.13857	0.54118
1182.21001	0.54129
1180.28145	0.54186
1178.35288	0.54297
1176.42432	0.54451
1174.49575	0.54603
1172.56719	0.54697
1170.63862	0.54735
1168.71006	0.54753
1166.78149	0.54782
1164.85293	0.54833
1162.92437	0.54886
1160.99580	0.54920
1159.06724	0.54935
1157.13867	0.54921
1155.21011	0.54861
1153.28154	0.54745
1151.35298	0.54574
1149.42441	0.54351
1147.49585	0.54076
1145.56729	0.53774
1143.63872	0.53497
1141.71016	0.53271
1139.78159	0.53086
1137.85303	0.52940
1135.92446	0.52834
1133.99590	0.52778
1132.06733	0.52780
1130.13877	0.52790
1128.21021	0.52774
1126.28164	0.52737
1124.35308	0.52687
1122.42451	0.52654
1120.49595	0.52662
1118.56738	0.52701
1116.63882	0.52763
1114.71025	0.52825
1112.78169	0.52882
1110.85312	0.52957
1108.92456	0.53062
1106.99600	0.53163
1105.06743	0.53227
1103.13887	0.53290
1101.21030	0.53389
1099.28174	0.53506
1097.35317	0.53669
1095.42461	0.53933
1093.49604	0.54297
1091.56748	0.54771
1089.63892	0.55397
1087.71035	0.56154
1085.78179	0.56997
1083.85322	0.57893
1081.92466	0.58723
1079.99609	0.59316
1078.06753	0.59578
1076.13896	0.59527
1074.21040	0.59202
1072.28184	0.58639
1070.35327	0.57947
1068.42471	0.57226
1066.49614	0.56509
1064.56758	0.55837
1062.63901	0.55271
1060.71045	0.54827
1058.78188	0.54429
1056.85332	0.54009
1054.92476	0.53617
1052.99619	0.53329
1051.06763	0.53137
1049.13906	0.52996
1047.21050	0.52900
1045.28193	0.52859
1043.35337	0.52872
1041.42480	0.52922
1039.49624	0.52961
1037.56768	0.52959
1035.63911	0.52934
1033.71055	0.52885
1031.78198	0.52789
1029.85342	0.52633
1027.92485	0.52433
1025.99629	0.52233
1024.06772	0.52076
1022.13916	0.51971
1020.21060	0.51905
1018.28203	0.51869
1016.35347	0.51852
1014.42490	0.51830
1012.49634	0.51791
1010.56777	0.51745
1008.63921	0.51703
1006.71064	0.51693
1004.78208	0.51754
1002.85352	0.51903
1000.92495	0.52135
998.99639	0.52448
997.06782	0.52847
995.13926	0.53312
993.21069	0.53765
991.28213	0.54117
989.35356	0.54301
987.42500	0.54331
985.49644	0.54292
983.56787	0.54263
981.63931	0.54273
979.71074	0.54335
977.78218	0.54451
975.85361	0.54621
973.92505	0.54858
971.99648	0.55163
970.06792	0.55507
968.13936	0.55869
966.21079	0.56258
964.28223	0.56695
962.35366	0.57177
960.42510	0.57685
958.49653	0.58207
956.56797	0.58755
954.63940	0.59349
952.71084	0.59991
950.78228	0.60655
948.85371	0.61292
946.92515	0.61892
944.99658	0.62497
943.06802	0.63140
941.13945	0.63806
939.21089	0.64444
937.28232	0.65076
935.35376	0.65715
933.42520	0.66288
931.49663	0.66788
929.56807	0.67299
927.63950	0.67884
925.71094	0.68514
923.78237	0.69167
921.85381	0.69856
919.92524	0.70553
917.99668	0.71289
916.06812	0.72097
914.13955	0.72886
912.21099	0.73607
910.28242	0.74381
908.35386	0.75297
906.42529	0.76275
904.49673	0.77220
902.56816	0.78165
900.63960	0.79133
898.71104	0.80043
896.78247	0.80988
894.85391	0.82098
892.92534	0.83163
890.99678	0.84075
889.06821	0.85107
887.13965	0.86308
885.21108	0.87458
883.28252	0.88549
881.35396	0.89707
879.42539	0.90941
877.49683	0.92180
875.56826	0.93398
873.63970	0.94557
871.71113	0.95647
869.78257	0.96753
867.85400	0.97827
865.92544	0.98894
863.99687	1.00132
862.06831	1.01496
860.13975	1.02788
858.21118	1.03918
856.28262	1.05050
854.35405	1.06351
852.42549	1.07702
850.49692	1.09060
848.56836	1.10391
846.63979	1.11520
844.71123	1.12508
842.78267	1.13570
840.85410	1.14837
838.92554	1.16323
836.99697	1.17812
835.06841	1.18885
833.13984	1.19701
831.21128	1.20951
829.28271	1.22456
827.35415	1.23495
825.42559	1.24391
823.49702	1.26023
821.56846	1.27797
819.63989	1.28757
817.71133	1.30191
815.78276	1.32572
813.85420	1.34125
811.92563	1.34984
809.99707	1.36658
808.06851	1.40015
806.13994	1.43946
804.21138	1.45475
802.28281	1.46116
800.35425	1.48044
798.42568	1.50410
796.49712	1.54112
794.56855	1.61060
792.63999	1.64598
790.71143	1.58492
788.78286	1.55294
786.85430	1.58727
784.92573	1.65587
782.99717	1.74677
781.06860	1.79545
779.14004	1.73811
777.21147	1.62849
775.28291	1.64759
773.35435	2.03952
771.42578	4.62855
769.49722	1.98607
767.56865	1.55990
765.64009	1.44630
763.71152	1.48685
761.78296	1.65307
759.85439	1.61662
757.92583	1.39293
755.99727	1.34237
754.06870	1.45700
752.14014	1.60313
750.21157	1.56326
748.28301	1.49751
746.35444	1.53568
744.42588	1.38914
742.49731	1.17793
740.56875	1.03210
738.64019	0.89924
736.71162	0.83474
734.78306	0.84746
732.85449	0.81090
730.92593	0.70368
728.99736	0.61818
727.06880	0.53311
725.14023	0.47923
723.21167	0.57362
721.28311	0.78662
719.35454	0.58510
717.42598	0.40674
715.49741	0.48712
713.56885	0.60497
711.64028	0.33275
709.71172	0.10191
707.78315	0.08455
705.85459	0.01823
703.92603	-0.13788
701.99746	-0.17697
700.06890	-0.08788
698.14033	-0.01820
696.21177	-0.01188
694.28320	-0.00351
692.35464	0.04083
690.42607	0.12058
688.49751	0.15073
686.56895	0.01818
684.64038	-0.06638
682.71182	-0.01804
680.78325	0.08836
678.85469	0.20475
676.92612	0.34396
674.99756	0.39293
673.06899	0.27517
671.14043	0.18346
669.21187	0.12023
667.28330	0.07867
665.35474	0.03772
663.42617	-0.00300
661.49761	0.04938
659.56904	0.15172
657.64048	0.24005
655.71191	0.35905
653.78335	0.41897
651.85479	0.31321
649.92622	0.22196
647.99766	0.14751
646.06909	0.12643
644.14053	0.16446
642.21196	0.24229
640.28340	0.24647
638.35483	0.13768
636.42627	0.02263
634.49771	-0.03552
632.56914	-0.05210
630.64058	-0.10003
628.71201	-0.09266
626.78345	0.04394
624.85488	0.18229
622.92632	0.19978
620.99775	0.16330
619.06919	0.19403
617.14062	0.21756
615.21206	0.19843
613.28350	0.18061
611.35493	0.19406
609.42637	0.21805
607.49780	0.17522
605.56924	0.06146
603.64067	-0.07983
601.71211	-0.10234
599.78354	-0.03504
597.85498	0.04221
595.92642	0.10363
593.99785	0.10453
592.06929	0.11036
590.14072	0.15389
588.21216	0.13277
586.28359	0.10436
584.35503	0.13015
582.42646	0.12144
580.49790	0.06249
578.56934	0.03086
576.64077	0.06044
574.71221	0.12589
572.78364	0.14717
570.85508	0.10115
568.92651	0.10054
566.99795	0.16356
565.06938	0.15050
563.14082	0.09380
561.21226	0.09402
559.28369	0.11707
557.35513	0.12430
555.42656	0.14972
553.49800	0.16759
551.56943	0.14598
549.64087	0.13806
547.71230	0.24736
545.78374	0.43264
543.85518	0.24049
541.92661	0.06171
539.99805	0.04410
538.06948	0.11144
536.14092	0.19909
534.21235	0.29436
532.28379	0.33200
530.35522	0.22793
528.42666	0.13833
526.49810	0.11831
524.56953	0.10988
522.64097	0.09765
520.71240	0.11205
518.78384	0.11944
516.85527	0.08720
514.92671	0.05615
512.99814	0.04738
511.06958	0.05807
509.14102	0.07503
507.21245	0.12401
505.28389	0.17170
503.35532	0.16912
501.42676	0.16258
499.49819	0.14259
