3997.91411	0.06752
3995.98555	0.06744
3994.05698	0.06745
3992.12842	0.06758
3990.19985	0.06791
3988.27129	0.06862
3986.34272	0.06960
3984.41416	0.07057
3982.48560	0.07101
3980.55703	0.07064
3978.62847	0.07011
3976.69990	0.07013
3974.77134	0.07062
3972.84277	0.07121
3970.91421	0.07158
3968.98564	0.07172
3967.05708	0.07180
3965.12852	0.07186
3963.19995	0.07202
3961.27139	0.07206
3959.34282	0.07192
3957.41426	0.07189
3955.48569	0.07175
3953.55713	0.07157
3951.62856	0.07177
3949.70000	0.07209
3947.77144	0.07220
3945.84287	0.07206
3943.91431	0.07185
3941.98574	0.07187
3940.05718	0.07204
3938.12861	0.07207
3936.20005	0.07193
3934.27148	0.07177
3932.34292	0.07170
3930.41436	0.07164
3928.48579	0.07157
3926.55723	0.07135
3924.62866	0.07102
3922.70010	0.07083
3920.77153	0.07066
3918.84297	0.07045
3916.91440	0.07068
3914.98584	0.07121
3913.05728	0.07114
3911.12871	0.07067
3909.20015	0.07059
3907.27158	0.07095
3905.34302	0.07117
3903.41445	0.07080
3901.48589	0.07024
3899.55732	0.07022
3897.62876	0.07061
3895.70020	0.07094
3893.77163	0.07114
3891.84307	0.07127
3889.91450	0.07131
3887.98594	0.07148
3886.05737	0.07191
3884.12881	0.07190
3882.20024	0.07141
3880.27168	0.07134
3878.34312	0.07157
3876.41455	0.07177
3874.48599	0.07218
3872.55742	0.07266
3870.62886	0.07291
3868.70029	0.07316
3866.77173	0.07313
3864.84316	0.07304
3862.91460	0.07344
3860.98604	0.07399
3859.05747	0.07431
3857.12891	0.07447
3855.20034	0.07440
3853.27178	0.07467
3851.34321	0.07620
3849.41465	0.07718
3847.48608	0.07734
3845.55752	0.07740
3843.62896	0.07780
3841.70039	0.07872
3839.77183	0.07963
3837.84326	0.08017
3835.91470	0.08070
3833.98613	0.08142
3832.05757	0.08195
3830.12900	0.08238
3828.20044	0.08300
3826.27187	0.08373
3824.34331	0.08445
3822.41475	0.08521
3820.48618	0.08643
3818.55762	0.08747
3816.62905	0.08795
3814.70049	0.08855
3812.77192	0.08910
3810.84336	0.08971
3808.91479	0.09079
3806.98623	0.09243
3805.05767	0.09406
3803.12910	0.09546
3801.20054	0.09747
3799.27197	0.09911
3797.34341	0.09931
3795.41484	0.09958
3793.48628	0.10010
3791.55771	0.10075
3789.62915	0.10191
3787.70059	0.10323
3785.77202	0.10451
3783.84346	0.10596
3781.91489	0.10734
3779.98633	0.10871
3778.05776	0.11048
3776.12920	0.11212
3774.20063	0.11335
3772.27207	0.11469
3770.34351	0.11669
3768.41494	0.11944
3766.48638	0.12201
3764.55781	0.12406
3762.62925	0.12561
3760.70068	0.12720
3758.77212	0.12959
3756.84355	0.13214
3754.91499	0.13418
3752.98643	0.13658
3751.05786	0.13993
3749.12930	0.14325
3747.20073	0.14532
3745.27217	0.14767
3743.34360	0.15197
3741.41504	0.15610
3739.48647	0.15852
3737.55791	0.16066
3735.62935	0.16392
3733.70078	0.16931
3731.77222	0.17511
3729.84365	0.17991
3727.91509	0.18444
3725.98652	0.18967
3724.05796	0.19568
3722.12939	0.20257
3720.20083	0.21044
3718.27227	0.21817
3716.34370	0.22550
3714.41514	0.23280
3712.48657	0.24148
3710.55801	0.25417
3708.62944	0.26865
3706.70088	0.28060
3704.77231	0.29160
3702.84375	0.30433
3700.91519	0.32099
3698.98662	0.33948
3697.05806	0.35694
3695.12949	0.37532
3693.20093	0.39498
3691.27236	0.41657
3689.34380	0.44432
3687.41523	0.47854
3685.48667	0.50929
3683.55811	0.53577
3681.62954	0.56344
3679.70098	0.59407
3677.77241	0.62591
3675.84385	0.66400
3673.91528	0.71672
3671.98672	0.76012
3670.05815	0.79795
3668.12959	0.85054
3666.20103	0.89971
3664.27246	0.94079
3662.34390	0.98418
3660.41533	1.03066
3658.48677	1.07622
3656.55820	1.12452
3654.62964	1.17836
3652.70107	1.22350
3650.77251	1.26222
3648.84395	1.31576
3646.91538	1.38285
3644.98682	1.43331
3643.05825	1.47235
3641.12969	1.51192
3639.20112	1.55507
3637.27256	1.59879
3635.34399	1.64207
3633.41543	1.68508
3631.48687	1.72385
3629.55830	1.76165
3627.62974	1.81264
3625.70117	1.86326
3623.77261	1.89806
3621.84404	1.92962
3619.91548	1.96520
3617.98691	2.00957
3616.05835	2.05358
3614.12979	2.09086
3612.20122	2.12970
3610.27266	2.16854
3608.34409	2.20756
3606.41553	2.24863
3604.48696	2.28636
3602.55840	2.32027
3600.62983	2.35751
3598.70127	2.39861
3596.77271	2.43851
3594.84414	2.47781
3592.91558	2.51830
3590.98701	2.55733
3589.05845	2.59339
3587.12988	2.63496
3585.20132	2.68139
3583.27275	2.72199
3581.34419	2.75940
3579.41562	2.79923
3577.48706	2.84148
3575.55850	2.88454
3573.62993	2.92917
3571.70137	2.97213
3569.77280	3.01120
3567.84424	3.05175
3565.91567	3.10148
3563.98711	3.14956
3562.05854	3.18977
3560.12998	3.23168
3558.20142	3.27772
3556.27285	3.32341
3554.34429	3.36537
3552.41572	3.40859
3550.48716	3.45481
3548.55859	3.49995
3546.63003	3.54381
3544.70146	3.59076
3542.77290	3.64000
3540.84434	3.68736
3538.91577	3.73388
3536.98721	3.78041
3535.05864	3.82773
3533.13008	3.87356
3531.20151	3.91701
3529.27295	3.96244
3527.34438	4.01278
3525.41582	4.06289
3523.48726	4.11097
3521.55869	4.15889
3519.63013	4.20213
3517.70156	4.24486
3515.77300	4.29300
3513.84443	4.34224
3511.91587	4.38872
3509.98730	4.43550
3508.05874	4.48466
3506.13018	4.53190
3504.20161	4.57408
3502.27305	4.61728
3500.34448	4.66758
3498.41592	4.71979
3496.48735	4.76947
3494.55879	4.81866
3492.63022	4.86865
3490.70166	4.91628
3488.77310	4.96171
3486.84453	5.00648
3484.91597	5.05017
3482.98740	5.09664
3481.05884	5.14742
3479.13027	5.19651
3477.20171	5.23898
3475.27314	5.27895
3473.34458	5.32570
3471.41602	5.37847
3469.48745	5.42890
3467.55889	5.47257
3465.63032	5.51169
3463.70176	5.55585
3461.77319	5.61034
3459.84463	5.66972
3457.91606	5.71848
3455.98750	5.75695
3454.05894	5.80061
3452.13037	5.85189
3450.20181	5.90718
3448.27324	5.96567
3446.34468	6.02052
3444.41611	6.06776
3442.48755	6.12866
3440.55898	6.19453
3438.63042	6.23139
3436.70186	6.25260
3434.77329	6.29679
3432.84473	6.36416
3430.91616	6.42654
3428.98760	6.47528
3427.05903	6.51152
3425.13047	6.55179
3423.20190	6.60253
3421.27334	6.65222
3419.34478	6.70745
3417.41621	6.77963
3415.48765	6.83652
3413.55908	6.86723
3411.63052	6.90575
3409.70195	6.93548
3407.77339	6.95969
3405.84482	6.99099
3403.91626	7.02759
3401.98770	7.06728
3400.05913	7.10289
3398.13057	7.15878
3396.20200	7.24078
3394.27344	7.30785
3392.34487	7.33131
3390.41631	7.35476
3388.48774	7.40085
3386.55918	7.46403
3384.63062	7.52292
3382.70205	7.55036
3380.77349	7.55391
3378.84492	7.54788
3376.91636	7.54590
3374.98779	7.55076
3373.05923	7.58546
3371.13066	7.63098
3369.20210	7.66603
3367.27354	7.70549
3365.34497	7.76772
3363.41641	7.83436
3361.48784	7.84750
3359.55928	7.80025
3357.63071	7.73889
3355.70215	7.74586
3353.77358	7.80687
3351.84502	7.83303
3349.91646	7.79576
3347.98789	7.77930
3346.05933	7.85181
3344.13076	7.94991
3342.20220	7.97822
3340.27363	7.91850
3338.34507	7.87348
3336.41650	7.91612
3334.48794	7.98504
3332.55937	7.96777
3330.63081	7.92232
3328.70225	7.93752
3326.77368	8.01529
3324.84512	8.16135
3322.91655	8.26173
3320.98799	8.21996
3319.05942	8.12014
3317.13086	8.03665
3315.20229	7.98640
3313.27373	7.97302
3311.34517	7.95853
3309.41660	7.96169
3307.48804	8.01290
3305.55947	8.06458
3303.63091	8.13719
3301.70234	8.24985
3299.77378	8.34944
3297.84521	8.36121
3295.91665	8.29576
3293.98809	8.20218
3292.05952	8.11552
3290.13096	8.09574
3288.20239	8.17155
3286.27383	8.26829
3284.34526	8.21582
3282.41670	8.11509
3280.48813	8.13801
3278.55957	8.14898
3276.63101	8.03187
3274.70244	7.90914
3272.77388	7.86029
3270.84531	7.91284
3268.91675	8.04200
3266.98818	8.09766
3265.05962	8.03926
3263.13105	8.01142
3261.20249	8.09157
3259.27393	8.20700
3257.34536	8.26674
3255.41680	8.27023
3253.48823	8.30276
3251.55967	8.35630
3249.63110	8.31047
3247.70254	8.22178
3245.77397	8.11466
3243.84541	7.96021
3241.91685	7.92293
3239.98828	8.07597
3238.05972	8.19308
3236.13115	8.11581
3234.20259	8.01688
3232.27402	7.97892
3230.34546	7.98087
3228.41689	8.05057
3226.48833	8.12595
3224.55977	8.07879
3222.63120	7.98966
3220.70264	7.91264
3218.77407	7.80341
3216.84551	7.74240
3214.91694	7.76968
3212.98838	7.83491
3211.05981	7.90091
3209.13125	7.89734
3207.20269	7.83222
3205.27412	7.81029
3203.34556	7.84615
3201.41699	7.86258
3199.48843	7.78233
3197.55986	7.61094
3195.63130	7.46058
3193.70273	7.42012
3191.77417	7.43539
3189.84561	7.42684
3187.91704	7.43265
3185.98848	7.49292
3184.05991	7.52562
3182.13135	7.43466
3180.20278	7.30727
3178.27422	7.25094
3176.34565	7.22563
3174.41709	7.16437
3172.48853	7.09099
3170.55996	7.02298
3168.63140	6.93622
3166.70283	6.84687
3164.77427	6.78110
3162.84570	6.73692
3160.91714	6.70936
3158.98857	6.66878
3157.06001	6.59122
3155.13145	6.51228
3153.20288	6.44769
3151.27432	6.37710
3149.34575	6.30754
3147.41719	6.24607
3145.48862	6.16820
3143.56006	6.08795
3141.63149	6.04079
3139.70293	5.99349
3137.77437	5.92404
3135.84580	5.85878
3133.91724	5.79715
3131.98867	5.73247
3130.06011	5.66752
3128.13154	5.59578
3126.20298	5.51973
3124.27441	5.45069
3122.34585	5.38466
3120.41729	5.31102
3118.48872	5.23062
3116.56016	5.15511
3114.63159	5.08995
3112.70303	5.02365
3110.77446	4.94873
3108.84590	4.87655
3106.91733	4.81146
3104.98877	4.74533
3103.06021	4.67886
3101.13164	4.61270
3099.20308	4.54618
3097.27451	4.48120
3095.34595	4.41503
3093.41738	4.34519
3091.48882	4.27434
3089.56025	4.20887
3087.63169	4.14826
3085.70312	4.08465
3083.77456	4.01821
3081.84600	3.95590
3079.91743	3.89874
3077.98887	3.84150
3076.06030	3.78049
3074.13174	3.71832
3072.20317	3.65732
3070.27461	3.59705
3068.34604	3.53938
3066.41748	3.48401
3064.48892	3.42799
3062.56035	3.37005
3060.63179	3.31338
3058.70322	3.26155
3056.77466	3.21148
3054.84609	3.15855
3052.91753	3.10382
3050.98896	3.05092
3049.06040	2.99987
3047.13184	2.94913
3045.20327	2.89858
3043.27471	2.84902
3041.34614	2.80123
3039.41758	2.75384
3037.48901	2.70569
3035.56045	2.65856
3033.63188	2.61377
3031.70332	2.56941
3029.77476	2.52425
3027.84619	2.48041
3025.91763	2.43862
3023.98906	2.39691
3022.06050	2.35447
3020.13193	2.31252
3018.20337	2.27197
3016.27480	2.23273
3014.34624	2.19432
3012.41768	2.15606
3010.48911	2.11760
3008.56055	2.07939
3006.63198	2.04207
3004.70342	2.00568
3002.77485	1.96993
3000.84629	1.93473
2998.91772	1.89996
2996.98916	1.86573
2995.06060	1.83249
2993.13203	1.80028
2991.20347	1.76843
2989.27490	1.73635
2987.34634	1.70438
2985.41777	1.67312
2983.48921	1.64245
2981.56064	1.61222
2979.63208	1.58244
2977.70352	1.55300
2975.77495	1.52379
2973.84639	1.49504
2971.91782	1.46715
2969.98926	1.43966
2968.06069	1.41195
2966.13213	1.38462
2964.20356	1.35833
2962.27500	1.33274
2960.34644	1.30771
2958.41787	1.28357
2956.48931	1.26040
2954.56074	1.23794
2952.63218	1.21550
2950.70361	1.19276
2948.77505	1.17005
2946.84648	1.14757
2944.91792	1.12556
2942.98936	1.10392
2941.06079	1.08246
2939.13223	1.06137
2937.20366	1.04084
2935.27510	1.02151
2933.34653	1.00318
2931.41797	0.98399
2929.48940	0.96371
2927.56084	0.94424
2925.63228	0.92654
2923.70371	0.91036
2921.77515	0.89490
2919.84658	0.87941
2917.91802	0.86356
2915.98945	0.84766
2914.06089	0.83240
2912.13232	0.81775
2910.20376	0.80332
2908.27520	0.78902
2906.34663	0.77512
2904.41807	0.76174
2902.48950	0.74889
2900.56094	0.73663
2898.63237	0.72455
2896.70381	0.71220
2894.77524	0.69986
2892.84668	0.68779
2890.91812	0.67587
2888.98955	0.66425
2887.06099	0.65305
2885.13242	0.64184
2883.20386	0.63035
2881.27529	0.61923
2879.34673	0.60886
2877.41816	0.59858
2875.48960	0.58803
2873.56104	0.57751
2871.63247	0.56739
2869.70391	0.55759
2867.77534	0.54774
2865.84678	0.53789
2863.91821	0.52817
2861.98965	0.51859
2860.06108	0.50944
2858.13252	0.50059
2856.20396	0.49181
2854.27539	0.48335
2852.34683	0.47535
2850.41826	0.46774
2848.48970	0.46044
2846.56113	0.45316
2844.63257	0.44618
2842.70400	0.44003
2840.77544	0.43444
2838.84687	0.42875
2836.91831	0.42269
2834.98975	0.41665
2833.06118	0.41113
2831.13262	0.40582
2829.20405	0.40014
2827.27549	0.39436
2825.34692	0.38876
2823.41836	0.38294
2821.48979	0.37692
2819.56123	0.37120
2817.63267	0.36576
2815.70410	0.36037
2813.77554	0.35519
2811.84697	0.35014
2809.91841	0.34490
2807.98984	0.33972
2806.06128	0.33486
2804.13271	0.33007
2802.20415	0.32511
2800.27559	0.32023
2798.34702	0.31573
2796.41846	0.31139
2794.48989	0.30708
2792.56133	0.30297
2790.63276	0.29899
2788.70420	0.29486
2786.77563	0.29061
2784.84707	0.28647
2782.91851	0.28258
2780.98994	0.27898
2779.06138	0.27535
2777.13281	0.27148
2775.20425	0.26770
2773.27568	0.26434
2771.34712	0.26111
2769.41855	0.25765
2767.48999	0.25417
2765.56143	0.25096
2763.63286	0.24792
2761.70430	0.24487
2759.77573	0.24182
2757.84717	0.23896
2755.91860	0.23625
2753.99004	0.23342
2752.06147	0.23053
2750.13291	0.22775
2748.20435	0.22506
2746.27578	0.22244
2744.34722	0.22000
2742.41865	0.21769
2740.49009	0.21524
2738.56152	0.21267
2736.63296	0.21033
2734.70439	0.20825
2732.77583	0.20614
2730.84727	0.20409
2728.91870	0.20210
2726.99014	0.19991
2725.06157	0.19765
2723.13301	0.19565
2721.20444	0.19386
2719.27588	0.19205
2717.34731	0.19016
2715.41875	0.18833
2713.49019	0.18670
2711.56162	0.18511
2709.63306	0.18351
2707.70449	0.18196
2705.77593	0.18041
2703.84736	0.17885
2701.91880	0.17738
2699.99023	0.17601
2698.06167	0.17467
2696.13311	0.17332
2694.20454	0.17197
2692.27598	0.17065
2690.34741	0.16934
2688.41885	0.16806
2686.49028	0.16688
2684.56172	0.16577
2682.63315	0.16469
2680.70459	0.16366
2678.77603	0.16261
2676.84746	0.16156
2674.91890	0.16058
2672.99033	0.15966
2671.06177	0.15869
2669.13320	0.15775
2667.20464	0.15689
2665.27607	0.15608
2663.34751	0.15540
2661.41895	0.15468
2659.49038	0.15388
2657.56182	0.15325
2655.63325	0.15268
2653.70469	0.15200
2651.77612	0.15132
2649.84756	0.15072
2647.91899	0.15026
2645.99043	0.14987
2644.06187	0.14951
2642.13330	0.14913
2640.20474	0.14873
2638.27617	0.14829
2636.34761	0.14781
2634.41904	0.14736
2632.49048	0.14703
2630.56191	0.14672
2628.63335	0.14650
2626.70479	0.14637
2624.77622	0.14611
2622.84766	0.14584
2620.91909	0.14582
2618.99053	0.14590
2617.06196	0.14587
2615.13340	0.14576
2613.20483	0.14563
2611.27627	0.14555
2609.34771	0.14558
2607.41914	0.14566
2605.49058	0.14569
2603.56201	0.14571
2601.63345	0.14575
2599.70488	0.14577
2597.77632	0.14577
2595.84775	0.14585
2593.91919	0.14608
2591.99062	0.14646
2590.06206	0.14690
2588.13350	0.14722
2586.20493	0.14741
2584.27637	0.14766
2582.34780	0.14801
2580.41924	0.14841
2578.49067	0.14877
2576.56211	0.14901
2574.63354	0.14928
2572.70498	0.14971
2570.77642	0.15020
2568.84785	0.15063
2566.91929	0.15115
2564.99072	0.15175
2563.06216	0.15225
2561.13359	0.15264
2559.20503	0.15308
2557.27646	0.15362
2555.34790	0.15428
2553.41934	0.15509
2551.49077	0.15585
2549.56221	0.15647
2547.63364	0.15706
2545.70508	0.15770
2543.77651	0.15832
2541.84795	0.15889
2539.91938	0.15952
2537.99082	0.16022
2536.06226	0.16096
2534.13369	0.16177
2532.20513	0.16258
2530.27656	0.16336
2528.34800	0.16419
2526.41943	0.16498
2524.49087	0.16564
2522.56230	0.16631
2520.63374	0.16717
2518.70518	0.16821
2516.77661	0.16925
2514.84805	0.17012
2512.91948	0.17085
2510.99092	0.17161
2509.06235	0.17254
2507.13379	0.17353
2505.20522	0.17447
2503.27666	0.17536
2501.34810	0.17625
2499.41953	0.17720
2497.49097	0.17806
2495.56240	0.17882
2493.63384	0.17976
2491.70527	0.18083
2489.77671	0.18182
2487.84814	0.18274
2485.91958	0.18371
2483.99102	0.18469
2482.06245	0.18563
2480.13389	0.18655
2478.20532	0.18755
2476.27676	0.18857
2474.34819	0.18954
2472.41963	0.19054
2470.49106	0.19154
2468.56250	0.19249
2466.63394	0.19340
2464.70537	0.19434
2462.77681	0.19534
2460.84824	0.19641
2458.91968	0.19741
2456.99111	0.19834
2455.06255	0.19934
2453.13398	0.20048
2451.20542	0.20164
2449.27686	0.20264
2447.34829	0.20354
2445.41973	0.20453
2443.49116	0.20565
2441.56260	0.20675
2439.63403	0.20786
2437.70547	0.20897
2435.77690	0.20996
2433.84834	0.21097
2431.91978	0.21210
2429.99121	0.21328
2428.06265	0.21447
2426.13408	0.21561
2424.20552	0.21665
2422.27695	0.21776
2420.34839	0.21892
2418.41982	0.22006
2416.49126	0.22122
2414.56270	0.22244
2412.63413	0.22368
2410.70557	0.22487
2408.77700	0.22604
2406.84844	0.22726
2404.91987	0.22851
2402.99131	0.22976
2401.06274	0.23100
2399.13418	0.23221
2397.20562	0.23351
2395.27705	0.23492
2393.34849	0.23623
2391.41992	0.23749
2389.49136	0.23887
2387.56279	0.24021
2385.63423	0.24142
2383.70566	0.24268
2381.77710	0.24398
2379.84854	0.24511
2377.91997	0.24609
2375.99141	0.24701
2374.06284	0.24800
2372.13428	0.24935
2370.20571	0.25117
2368.27715	0.25293
2366.34858	0.25374
2364.42002	0.25362
2362.49146	0.25452
2360.56289	0.25709
2358.63433	0.25960
2356.70576	0.26162
2354.77720	0.26331
2352.84863	0.26502
2350.92007	0.26710
2348.99150	0.26878
2347.06294	0.26990
2345.13437	0.27115
2343.20581	0.27271
2341.27725	0.27390
2339.34868	0.27481
2337.42012	0.27578
2335.49155	0.27725
2333.56299	0.27948
2331.63442	0.28205
2329.70586	0.28444
2327.77729	0.28638
2325.84873	0.28801
2323.92017	0.28977
2321.99160	0.29164
2320.06304	0.29358
2318.13447	0.29559
2316.20591	0.29739
2314.27734	0.29903
2312.34878	0.30075
2310.42021	0.30251
2308.49165	0.30432
2306.56309	0.30632
2304.63452	0.30834
2302.70596	0.31019
2300.77739	0.31193
2298.84883	0.31370
2296.92026	0.31557
2294.99170	0.31749
2293.06313	0.31943
2291.13457	0.32135
2289.20601	0.32341
2287.27744	0.32556
2285.34888	0.32751
2283.42031	0.32941
2281.49175	0.33148
2279.56318	0.33363
2277.63462	0.33568
2275.70605	0.33767
2273.77749	0.33968
2271.84893	0.34172
2269.92036	0.34371
2267.99180	0.34577
2266.06323	0.34798
2264.13467	0.35021
2262.20610	0.35245
2260.27754	0.35473
2258.34897	0.35688
2256.42041	0.35894
2254.49185	0.36110
2252.56328	0.36325
2250.63472	0.36546
2248.70615	0.36780
2246.77759	0.37008
2244.84902	0.37223
2242.92046	0.37445
2240.99189	0.37683
2239.06333	0.37923
2237.13477	0.38152
2235.20620	0.38370
2233.27764	0.38587
2231.34907	0.38810
2229.42051	0.39043
2227.49194	0.39269
2225.56338	0.39484
2223.63481	0.39704
2221.70625	0.39934
2219.77769	0.40165
2217.84912	0.40384
2215.92056	0.40586
2213.99199	0.40784
2212.06343	0.40992
2210.13486	0.41210
2208.20630	0.41440
2206.27773	0.41667
2204.34917	0.41883
2202.42061	0.42098
2200.49204	0.42310
2198.56348	0.42516
2196.63491	0.42717
2194.70635	0.42911
2192.77778	0.43100
2190.84922	0.43298
2188.92065	0.43496
2186.99209	0.43676
2185.06353	0.43840
2183.13496	0.44003
2181.20640	0.44173
2179.27783	0.44341
2177.34927	0.44504
2175.42070	0.44671
2173.49214	0.44840
2171.56357	0.44990
2169.63501	0.45125
2167.70645	0.45256
2165.77788	0.45378
2163.84932	0.45498
2161.92075	0.45619
2159.99219	0.45736
2158.06362	0.45838
2156.13506	0.45928
2154.20649	0.46023
2152.27793	0.46116
2150.34937	0.46192
2148.42080	0.46255
2146.49224	0.46309
2144.56367	0.46348
2142.63511	0.46386
2140.70654	0.46426
2138.77798	0.46454
2136.84941	0.46458
2134.92085	0.46454
2132.99229	0.46456
2131.06372	0.46455
2129.13516	0.46440
2127.20659	0.46404
2125.27803	0.46355
2123.34946	0.46307
2121.42090	0.46262
2119.49233	0.46205
2117.56377	0.46135
2115.63521	0.46063
2113.70664	0.45995
2111.77808	0.45919
2109.84951	0.45824
2107.92095	0.45716
2105.99238	0.45597
2104.06382	0.45464
2102.13525	0.45327
2100.20669	0.45195
2098.27812	0.45057
2096.34956	0.44907
2094.42100	0.44751
2092.49243	0.44585
2090.56387	0.44404
2088.63530	0.44222
2086.70674	0.44053
2084.77817	0.43871
2082.84961	0.43670
2080.92104	0.43468
2078.99248	0.43263
2077.06392	0.43045
2075.13535	0.42823
2073.20679	0.42606
2071.27822	0.42380
2069.34966	0.42147
2067.42109	0.41910
2065.49253	0.41668
2063.56396	0.41425
2061.63540	0.41187
2059.70684	0.40944
2057.77827	0.40689
2055.84971	0.40427
2053.92114	0.40165
2051.99258	0.39909
2050.06401	0.39654
2048.13545	0.39388
2046.20688	0.39111
2044.27832	0.38837
2042.34976	0.38568
2040.42119	0.38292
2038.49263	0.38008
2036.56406	0.37728
2034.63550	0.37458
2032.70693	0.37179
2030.77837	0.36883
2028.84980	0.36590
2026.92124	0.36316
2024.99268	0.36048
2023.06411	0.35771
2021.13555	0.35493
2019.20698	0.35217
2017.27842	0.34933
2015.34985	0.34638
2013.42129	0.34349
2011.49272	0.34071
2009.56416	0.33796
2007.63560	0.33525
2005.70703	0.33258
2003.77847	0.32993
2001.84990	0.32735
1999.92134	0.32478
1997.99277	0.32214
1996.06421	0.31950
1994.13564	0.31685
1992.20708	0.31413
1990.27852	0.31142
1988.34995	0.30891
1986.42139	0.30655
1984.49282	0.30418
1982.56426	0.30176
1980.63569	0.29932
1978.70713	0.29702
1976.77856	0.29488
1974.85000	0.29270
1972.92144	0.29038
1970.99287	0.28806
1969.06431	0.28588
1967.13574	0.28379
1965.20718	0.28181
1963.27861	0.27995
1961.35005	0.27803
1959.42148	0.27598
1957.49292	0.27402
1955.56436	0.27221
1953.63579	0.27042
1951.70723	0.26855
1949.77866	0.26678
1947.85010	0.26521
1945.92153	0.26379
1943.99297	0.26237
1942.06440	0.26090
1940.13584	0.25935
1938.20728	0.25784
1936.27871	0.25647
1934.35015	0.25519
1932.42158	0.25393
1930.49302	0.25268
1928.56445	0.25154
1926.63589	0.25047
1924.70732	0.24945
1922.77876	0.24851
1920.85020	0.24762
1918.92163	0.24672
1916.99307	0.24575
1915.06450	0.24476
1913.13594	0.24381
1911.20737	0.24300
1909.27881	0.24228
1907.35024	0.24161
1905.42168	0.24101
1903.49312	0.24048
1901.56455	0.23997
1899.63599	0.23946
1897.70742	0.23895
1895.77886	0.23842
1893.85029	0.23793
1891.92173	0.23748
1889.99316	0.23720
1888.06460	0.23699
1886.13604	0.23673
1884.20747	0.23651
1882.27891	0.23638
1880.35034	0.23629
1878.42178	0.23624
1876.49321	0.23623
1874.56465	0.23622
1872.63608	0.23630
1870.70752	0.23645
1868.77896	0.23685
1866.85039	0.23721
1864.92183	0.23724
1862.99326	0.23729
1861.06470	0.23755
1859.13613	0.23796
1857.20757	0.23830
1855.27900	0.23871
1853.35044	0.23923
1851.42187	0.23980
1849.49331	0.24031
1847.56475	0.24082
1845.63618	0.24154
1843.70762	0.24258
1841.77905	0.24353
1839.85049	0.24404
1837.92192	0.24469
1835.99336	0.24558
1834.06479	0.24657
1832.13623	0.24753
1830.20767	0.24877
1828.27910	0.25021
1826.35054	0.25138
1824.42197	0.25268
1822.49341	0.25400
1820.56484	0.25523
1818.63628	0.25659
1816.70771	0.25826
1814.77915	0.25995
1812.85059	0.26168
1810.92202	0.26370
1808.99346	0.26579
1807.06489	0.26773
1805.13633	0.26957
1803.20776	0.27168
1801.27920	0.27412
1799.35063	0.27696
1797.42207	0.27953
1795.49351	0.28184
1793.56494	0.28455
1791.63638	0.28829
1789.70781	0.29209
1787.77925	0.29492
1785.85068	0.29796
1783.92212	0.30152
1781.99355	0.30542
1780.06499	0.30966
1778.13643	0.31403
1776.20786	0.31806
1774.27930	0.32223
1772.35073	0.32790
1770.42217	0.33428
1768.49360	0.33987
1766.56504	0.34530
1764.63647	0.35078
1762.70791	0.35667
1760.77935	0.36404
1758.85078	0.37097
1756.92222	0.37790
1754.99365	0.38561
1753.06509	0.39261
1751.13652	0.40073
1749.20796	0.41105
1747.27939	0.42145
1745.35083	0.43066
1743.42227	0.44029
1741.49370	0.45090
1739.56514	0.46350
1737.63657	0.47610
1735.70801	0.48690
1733.77944	0.50315
1731.85088	0.52315
1729.92231	0.53926
1727.99375	0.55547
1726.06519	0.57263
1724.13662	0.59121
1722.20806	0.61120
1720.27949	0.62954
1718.35093	0.65074
1716.42236	0.68235
1714.49380	0.71310
1712.56523	0.73808
1710.63667	0.76203
1708.70811	0.78748
1706.77954	0.81617
1704.85098	0.85021
1702.92241	0.88042
1700.99385	0.90949
1699.06528	0.95270
1697.13672	0.99318
1695.20815	1.03442
1693.27959	1.07423
1691.35103	1.10588
1689.42246	1.14181
1687.49390	1.17901
1685.56533	1.21387
1683.63677	1.26733
1681.70820	1.32375
1679.77964	1.36019
1677.85107	1.39500
1675.92251	1.43452
1673.99395	1.48230
1672.06538	1.52405
1670.13682	1.56495
1668.20825	1.61881
1666.27969	1.66100
1664.35112	1.69389
1662.42256	1.73453
1660.49399	1.78260
1658.56543	1.82019
1656.63687	1.84971
1654.70830	1.87732
1652.77974	1.92598
1650.85117	1.97764
1648.92261	1.99921
1646.99404	2.02836
1645.06548	2.06264
1643.13691	2.08448
1641.20835	2.09765
1639.27979	2.11013
1637.35122	2.11875
1635.42266	2.12169
1633.49409	2.12031
1631.56553	2.11258
1629.63696	2.09952
1627.70840	2.07531
1625.77983	2.04741
1623.85127	2.01366
1621.92271	1.97330
1619.99414	1.93727
1618.06558	1.90021
1616.13701	1.84434
1614.20845	1.78681
1612.27988	1.74369
1610.35132	1.69817
1608.42275	1.64765
1606.49419	1.59727
1604.56562	1.55079
1602.63706	1.50618
1600.70850	1.46210
1598.77993	1.41992
1596.85137	1.37971
1594.92280	1.34164
1592.99424	1.30518
1591.06567	1.27094
1589.13711	1.23801
1587.20854	1.20674
1585.27998	1.17721
1583.35142	1.14904
1581.42285	1.12300
1579.49429	1.10057
1577.56572	1.07979
1575.63716	1.05362
1573.70859	1.03019
1571.78003	1.01437
1569.85146	0.99684
1567.92290	0.97659
1565.99434	0.96020
1564.06577	0.94586
1562.13721	0.93352
1560.20864	0.92253
1558.28008	0.90317
1556.35151	0.88564
1554.42295	0.87527
1552.49438	0.86500
1550.56582	0.85472
1548.63726	0.84425
1546.70869	0.83506
1544.78013	0.82672
1542.85156	0.81811
1540.92300	0.80849
1538.99443	0.79714
1537.06587	0.78935
1535.13730	0.78364
1533.20874	0.77653
1531.28018	0.76929
1529.35161	0.76369
1527.42305	0.75809
1525.49448	0.75221
1523.56592	0.74662
1521.63735	0.74048
1519.70879	0.73399
1517.78022	0.72866
1515.85166	0.72343
1513.92310	0.71859
1511.99453	0.71464
1510.06597	0.71094
1508.13740	0.70720
1506.20884	0.70182
1504.28027	0.69699
1502.35171	0.69388
1500.42314	0.69096
1498.49458	0.68768
1496.56602	0.68405
1494.63745	0.68076
1492.70889	0.67787
1490.78032	0.67497
1488.85176	0.67175
1486.92319	0.66868
1484.99463	0.66577
1483.06606	0.66295
1481.13750	0.66017
1479.20894	0.65745
1477.28037	0.65485
1475.35181	0.65218
1473.42324	0.64922
1471.49468	0.64553
1469.56611	0.64210
1467.63755	0.63935
1465.70898	0.63685
1463.78042	0.63450
1461.85186	0.63247
1459.92329	0.63071
1457.99473	0.62883
1456.06616	0.62637
1454.13760	0.62401
1452.20903	0.62207
1450.28047	0.62034
1448.35190	0.61878
1446.42334	0.61712
1444.49478	0.61539
1442.56621	0.61382
1440.63765	0.61238
1438.70908	0.61104
1436.78052	0.60966
1434.85195	0.60809
1432.92339	0.60657
1430.99482	0.60529
1429.06626	0.60400
1427.13770	0.60253
1425.20913	0.60101
1423.28057	0.59947
1421.35200	0.59790
1419.42344	0.59627
1417.49487	0.59471
1415.56631	0.59341
1413.63774	0.59217
1411.70918	0.59080
1409.78062	0.58939
1407.85205	0.58802
1405.92349	0.58658
1403.99492	0.58507
1402.06636	0.58367
1400.13779	0.58240
1398.20923	0.58106
1396.28066	0.57969
1394.35210	0.57831
1392.42354	0.57699
1390.49497	0.57581
1388.56641	0.57474
1386.63784	0.57361
1384.70928	0.57237
1382.78071	0.57110
1380.85215	0.56991
1378.92358	0.56892
1376.99502	0.56810
1375.06646	0.56738
1373.13789	0.56644
1371.20933	0.56522
1369.28076	0.56398
1367.35220	0.56288
1365.42363	0.56189
1363.49507	0.56096
1361.56650	0.56009
1359.63794	0.55917
1357.70937	0.55829
1355.78081	0.55749
1353.85225	0.55670
1351.92368	0.55591
1349.99512	0.55510
1348.06655	0.55414
1346.13799	0.55307
1344.20942	0.55212
1342.28086	0.55130
1340.35229	0.55050
1338.42373	0.54963
1336.49517	0.54869
1334.56660	0.54780
1332.63804	0.54704
1330.70947	0.54624
1328.78091	0.54530
1326.85234	0.54445
1324.92378	0.54373
1322.99521	0.54291
1321.06665	0.54193
1319.13809	0.54095
1317.20952	0.54014
1315.28096	0.53943
1313.35239	0.53866
1311.42383	0.53786
1309.49526	0.53703
1307.56670	0.53621
1305.63813	0.53543
1303.70957	0.53466
1301.78101	0.53397
1299.85244	0.53329
1297.92388	0.53251
1295.99531	0.53178
1294.06675	0.53117
1292.13818	0.53053
1290.20962	0.52986
1288.28105	0.52928
1286.35249	0.52874
1284.42393	0.52809
1282.49536	0.52746
1280.56680	0.52707
1278.63823	0.52677
1276.70967	0.52637
1274.78110	0.52594
1272.85254	0.52548
1270.92397	0.52503
1268.99541	0.52459
1267.06685	0.52409
1265.13828	0.52344
1263.20972	0.52280
1261.28115	0.52242
1259.35259	0.52232
1257.42402	0.52216
1255.49546	0.52171
1253.56689	0.52122
1251.63833	0.52102
1249.70977	0.52100
1247.78120	0.52081
1245.85264	0.52045
1243.92407	0.52003
1241.99551	0.51956
1240.06694	0.51915
1238.13838	0.51890
1236.20981	0.51861
1234.28125	0.51810
1232.35269	0.51746
1230.42412	0.51690
1228.49556	0.51645
1226.56699	0.51585
1224.63843	0.51513
1222.70986	0.51447
1220.78130	0.51386
1218.85273	0.51331
1216.92417	0.51283
1214.99561	0.51228
1213.06704	0.51165
1211.13848	0.51098
1209.20991	0.51030
1207.28135	0.50968
1205.35278	0.50906
1203.42422	0.50851
1201.49565	0.50805
1199.56709	0.50761
1197.63853	0.50716
1195.70996	0.50659
1193.78140	0.50588
1191.85283	0.50525
1189.92427	0.50479
1187.99570	0.50454
1186.06714	0.50435
1184.13857	0.50405
1182.21001	0.50381
1180.28145	0.50384
1178.35288	0.50410
1176.42432	0.50449
1174.49575	0.50494
1172.56719	0.50541
1170.63862	0.50585
1168.71006	0.50624
1166.78149	0.50651
1164.85293	0.50660
1162.92437	0.50661
1160.99580	0.50654
1159.06724	0.50631
1157.13867	0.50588
1155.21011	0.50510
1153.28154	0.50392
1151.35298	0.50256
1149.42441	0.50100
1147.49585	0.49907
1145.56729	0.49691
1143.63872	0.49472
1141.71016	0.49255
1139.78159	0.49021
1137.85303	0.48761
1135.92446	0.48510
1133.99590	0.48303
1132.06733	0.48135
1130.13877	0.47970
1128.21021	0.47797
1126.28164	0.47644
1124.35308	0.47527
1122.42451	0.47444
1120.49595	0.47369
1118.56738	0.47294
1116.63882	0.47249
1114.71025	0.47239
1112.78169	0.47248
1110.85312	0.47288
1108.92456	0.47370
1106.99600	0.47475
1105.06743	0.47588
1103.13887	0.47719
1101.21030	0.47883
1099.28174	0.48097
1097.35317	0.48353
1095.42461	0.48647
1093.49604	0.48996
1091.56748	0.49405
1089.63892	0.49865
1087.71035	0.50390
1085.78179	0.50995
1083.85322	0.51651
1081.92466	0.52292
1079.99609	0.52840
1078.06753	0.53207
1076.13896	0.53328
1074.21040	0.53180
1072.28184	0.52794
1070.35327	0.52250
1068.42471	0.51627
1066.49614	0.50988
1064.56758	0.50387
1062.63901	0.49843
1060.71045	0.49349
1058.78188	0.48907
1056.85332	0.48521
1054.92476	0.48191
1052.99619	0.47896
1051.06763	0.47620
1049.13906	0.47377
1047.21050	0.47188
1045.28193	0.47047
1043.35337	0.46942
1041.42480	0.46867
1039.49624	0.46792
1037.56768	0.46713
1035.63911	0.46672
1033.71055	0.46684
1031.78198	0.46706
1029.85342	0.46715
1027.92485	0.46742
1025.99629	0.46800
1024.06772	0.46869
1022.13916	0.46942
1020.21060	0.47020
1018.28203	0.47113
1016.35347	0.47226
1014.42490	0.47353
1012.49634	0.47491
1010.56777	0.47639
1008.63921	0.47787
1006.71064	0.47953
1004.78208	0.48164
1002.85352	0.48406
1000.92495	0.48665
998.99639	0.48950
997.06782	0.49280
995.13926	0.49654
993.21069	0.50030
991.28213	0.50368
989.35356	0.50641
987.42500	0.50819
985.49644	0.50926
983.56787	0.51021
981.63931	0.51132
979.71074	0.51282
977.78218	0.51483
975.85361	0.51723
973.92505	0.52008
971.99648	0.52345
970.06792	0.52706
968.13936	0.53067
966.21079	0.53456
964.28223	0.53897
962.35366	0.54377
960.42510	0.54891
958.49653	0.55446
956.56797	0.56025
954.63940	0.56610
952.71084	0.57185
950.78228	0.57766
948.85371	0.58386
946.92515	0.59047
944.99658	0.59713
943.06802	0.60372
941.13945	0.61002
939.21089	0.61535
937.28232	0.62030
935.35376	0.62591
933.42520	0.63133
931.49663	0.63623
929.56807	0.64186
927.63950	0.64818
925.71094	0.65417
923.78237	0.65985
921.85381	0.66567
919.92524	0.67178
917.99668	0.67886
916.06812	0.68703
914.13955	0.69498
912.21099	0.70271
910.28242	0.71104
908.35386	0.71920
906.42529	0.72675
904.49673	0.73477
902.56816	0.74366
900.63960	0.75271
898.71104	0.76194
896.78247	0.77196
894.85391	0.78269
892.92534	0.79304
890.99678	0.80233
889.06821	0.81181
887.13965	0.82226
885.21108	0.83289
883.28252	0.84403
881.35396	0.85623
879.42539	0.86857
877.49683	0.88001
875.56826	0.89065
873.63970	0.90089
871.71113	0.91125
869.78257	0.92228
867.85400	0.93492
865.92544	0.94849
863.99687	0.95960
862.06831	0.96894
860.13975	0.98038
858.21118	0.99315
856.28262	1.00473
854.35405	1.01605
852.42549	1.02691
850.49692	1.03547
848.56836	1.04479
846.63979	1.05696
844.71123	1.06906
842.78267	1.08092
840.85410	1.09476
838.92554	1.10777
836.99697	1.11485
835.06841	1.11950
833.13984	1.13051
831.21128	1.14701
829.28271	1.16112
827.35415	1.17112
825.42559	1.18142
823.49702	1.19302
821.56846	1.20024
819.63989	1.20361
817.71133	1.21174
815.78276	1.22548
813.85420	1.23833
811.92563	1.24620
809.99707	1.25339
808.06851	1.27086
806.13994	1.29410
804.21138	1.30390
802.28281	1.29781
800.35425	1.29276
798.42568	1.31099
796.49712	1.33667
794.56855	1.32922
792.63999	1.30385
790.71143	1.29914
788.78286	1.33186
786.85430	1.36821
784.92573	1.35993
782.99717	1.33678
781.06860	1.35433
779.14004	1.39371
777.21147	1.37768
775.28291	1.33447
773.35435	1.32720
771.42578	1.38766
769.49722	1.49791
767.56865	1.47926
765.64009	1.35741
763.71152	1.31090
761.78296	1.33379
759.85439	1.34096
757.92583	1.32321
755.99727	1.34141
754.06870	1.26515
752.14014	1.13026
750.21157	1.14075
748.28301	1.25409
746.35444	1.23676
744.42588	1.11006
742.49731	1.03594
740.56875	1.10925
738.64019	1.26675
736.71162	1.07993
734.78306	0.79422
732.85449	0.60310
730.92593	0.53517
728.99736	0.55857
727.06880	0.54456
725.14023	0.50834
723.21167	0.57971
721.28311	0.71833
719.35454	0.63411
717.42598	0.38881
715.49741	0.15697
713.56885	-0.13484
711.64028	-0.21455
709.71172	-0.08746
707.78315	0.00384
705.85459	-0.00349
703.92603	0.04214
701.99746	0.36107
700.06890	1.79440
698.14033	0.69779
696.21177	0.39352
694.28320	0.28932
692.35464	0.30179
690.42607	0.43499
688.49751	0.66498
686.56895	0.77257
684.64038	0.50111
682.71182	0.45435
680.78325	0.55352
678.85469	0.53070
676.92612	0.37805
674.99756	0.28510
673.06899	0.29558
671.14043	0.47674
669.21187	4.01527
667.28330	4.00370
665.35474	3.99213
663.42617	0.69101
661.49761	0.67856
659.56904	0.76948
657.64048	0.52524
655.71191	0.41571
653.78335	0.45551
651.85479	0.44220
649.92622	0.33837
647.99766	0.30825
646.06909	0.34312
644.14053	0.33474
642.21196	0.31974
640.28340	0.28885
638.35483	0.25016
636.42627	0.27412
634.49771	0.37682
632.56914	0.45495
630.64058	0.44805
628.71201	0.44906
626.78345	0.39282
624.85488	0.28930
622.92632	0.24233
620.99775	0.25124
619.06919	0.27866
617.14062	0.29997
615.21206	0.31053
613.28350	0.34732
611.35493	0.37615
609.42637	0.30776
607.49780	0.27392
605.56924	0.34819
603.64067	0.48089
601.71211	0.47663
599.78354	0.41000
597.85498	0.41898
595.92642	0.41506
593.99785	0.34653
592.06929	0.33663
590.14072	0.42284
588.21216	0.51101
586.28359	0.50695
584.35503	0.40970
582.42646	0.32472
580.49790	0.29975
578.56934	0.26006
576.64077	0.20415
574.71221	0.19828
572.78364	0.23476
570.85508	0.22889
568.92651	0.16944
566.99795	0.15099
565.06938	0.19874
563.14082	0.27852
561.21226	0.29893
559.28369	0.22970
557.35513	0.17442
555.42656	0.15746
553.49800	0.19679
551.56943	0.25933
549.64087	0.26851
547.71230	0.26857
545.78374	0.33831
543.85518	0.40982
541.92661	0.40280
539.99805	0.39155
538.06948	0.34311
536.14092	0.23182
534.21235	0.16811
532.28379	0.15870
530.35522	0.17436
528.42666	0.17965
526.49810	0.16393
524.56953	0.18309
522.64097	0.25710
520.71240	0.35057
518.78384	0.40232
516.85527	0.37669
514.92671	0.33749
512.99814	0.33324
511.06958	0.33341
509.14102	0.32574
507.21245	0.31198
505.28389	0.30384
503.35532	0.32810
501.42676	0.35064
499.49819	0.34372
