3997.91411	0.08929
3995.98555	0.08908
3994.05698	0.08948
3992.12842	0.09007
3990.19985	0.09045
3988.27129	0.09085
3986.34272	0.09132
3984.41416	0.09186
3982.48560	0.09230
3980.55703	0.09231
3978.62847	0.09216
3976.69990	0.09233
3974.77134	0.09276
3972.84277	0.09307
3970.91421	0.09335
3968.98564	0.09380
3967.05708	0.09397
3965.12852	0.09369
3963.19995	0.09359
3961.27139	0.09380
3959.34282	0.09398
3957.41426	0.09396
3955.48569	0.09386
3953.55713	0.09390
3951.62856	0.09414
3949.70000	0.09456
3947.77144	0.09499
3945.84287	0.09511
3943.91431	0.09500
3941.98574	0.09505
3940.05718	0.09506
3938.12861	0.09475
3936.20005	0.09437
3934.27148	0.09432
3932.34292	0.09463
3930.41436	0.09490
3928.48579	0.09487
3926.55723	0.09487
3924.62866	0.09510
3922.70010	0.09506
3920.77153	0.09466
3918.84297	0.09461
3916.91440	0.09498
3914.98584	0.09461
3913.05728	0.09335
3911.12871	0.09226
3909.20015	0.09186
3907.27158	0.09240
3905.34302	0.09369
3903.41445	0.09484
3901.48589	0.09538
3899.55732	0.09553
3897.62876	0.09494
3895.70020	0.09388
3893.77163	0.09364
3891.84307	0.09448
3889.91450	0.09479
3887.98594	0.09404
3886.05737	0.09418
3884.12881	0.09496
3882.20024	0.09488
3880.27168	0.09484
3878.34312	0.09481
3876.41455	0.09465
3874.48599	0.09531
3872.55742	0.09631
3870.62886	0.09709
3868.70029	0.09770
3866.77173	0.09737
3864.84316	0.09722
3862.91460	0.09772
3860.98604	0.09740
3859.05747	0.09682
3857.12891	0.09707
3855.20034	0.09794
3853.27178	0.09979
3851.34321	0.10161
3849.41465	0.10089
3847.48608	0.09969
3845.55752	0.09942
3843.62896	0.10043
3841.70039	0.10237
3839.77183	0.10423
3837.84326	0.10550
3835.91470	0.10582
3833.98613	0.10536
3832.05757	0.10492
3830.12900	0.10501
3828.20044	0.10571
3826.27187	0.10681
3824.34331	0.10772
3822.41475	0.10879
3820.48618	0.11101
3818.55762	0.11209
3816.62905	0.11152
3814.70049	0.11134
3812.77192	0.11106
3810.84336	0.11084
3808.91479	0.11189
3806.98623	0.11446
3805.05767	0.11695
3803.12910	0.11855
3801.20054	0.12099
3799.27197	0.12312
3797.34341	0.12302
3795.41484	0.12227
3793.48628	0.12174
3791.55771	0.12201
3789.62915	0.12324
3787.70059	0.12473
3785.77202	0.12631
3783.84346	0.12791
3781.91489	0.12913
3779.98633	0.13048
3778.05776	0.13224
3776.12920	0.13332
3774.20063	0.13414
3772.27207	0.13594
3770.34351	0.13901
3768.41494	0.14225
3766.48638	0.14445
3764.55781	0.14631
3762.62925	0.14800
3760.70068	0.14993
3758.77212	0.15294
3756.84355	0.15584
3754.91499	0.15809
3752.98643	0.16144
3751.05786	0.16681
3749.12930	0.17167
3747.20073	0.17309
3745.27217	0.17419
3743.34360	0.17756
3741.41504	0.18089
3739.48647	0.18306
3737.55791	0.18637
3735.62935	0.19247
3733.70078	0.19975
3731.77222	0.20417
3729.84365	0.20666
3727.91509	0.20986
3725.98652	0.21525
3724.05796	0.22233
3722.12939	0.22947
3720.20083	0.23629
3718.27227	0.24274
3716.34370	0.24930
3714.41514	0.25634
3712.48657	0.26561
3710.55801	0.27979
3708.62944	0.29479
3706.70088	0.30587
3704.77231	0.31611
3702.84375	0.32888
3700.91519	0.34597
3698.98662	0.36451
3697.05806	0.38203
3695.12949	0.40054
3693.20093	0.42055
3691.27236	0.44328
3689.34380	0.47244
3687.41523	0.50635
3685.48667	0.53561
3683.55811	0.56139
3681.62954	0.58933
3679.70098	0.62091
3677.77241	0.65466
3675.84385	0.69558
3673.91528	0.74982
3671.98672	0.79298
3670.05815	0.83161
3668.12959	0.88479
3666.20103	0.93238
3664.27246	0.97175
3662.34390	1.01466
3660.41533	1.06160
3658.48677	1.10799
3656.55820	1.15781
3654.62964	1.21371
3652.70107	1.26069
3650.77251	1.30175
3648.84395	1.35797
3646.91538	1.42561
3644.98682	1.47504
3643.05825	1.51349
3641.12969	1.55341
3639.20112	1.59776
3637.27256	1.64253
3635.34399	1.68615
3633.41543	1.72934
3631.48687	1.76947
3629.55830	1.81095
3627.62974	1.86552
3625.70117	1.91585
3623.77261	1.95022
3621.84404	1.98367
3619.91548	2.02277
3617.98691	2.07025
3616.05835	2.11426
3614.12979	2.14946
3612.20122	2.18676
3610.27266	2.22548
3608.34409	2.26567
3606.41553	2.30959
3604.48696	2.35088
3602.55840	2.38742
3600.62983	2.42584
3598.70127	2.46617
3596.77271	2.50526
3594.84414	2.54660
3592.91558	2.58998
3590.98701	2.62938
3589.05845	2.66543
3587.12988	2.70858
3585.20132	2.75593
3583.27275	2.79649
3581.34419	2.83460
3579.41562	2.87574
3577.48706	2.91852
3575.55850	2.96082
3573.62993	3.00542
3571.70137	3.04981
3569.77280	3.09042
3567.84424	3.13249
3565.91567	3.18554
3563.98711	3.23725
3562.05854	3.27771
3560.12998	3.31851
3558.20142	3.36417
3556.27285	3.41055
3554.34429	3.45443
3552.41572	3.49943
3550.48716	3.54683
3548.55859	3.59331
3546.63003	3.63878
3544.70146	3.68913
3542.77290	3.74229
3540.84434	3.78897
3538.91577	3.83131
3536.98721	3.87698
3535.05864	3.92757
3533.13008	3.97661
3531.20151	4.02376
3529.27295	4.07153
3527.34438	4.11954
3525.41582	4.16605
3523.48726	4.21152
3521.55869	4.26053
3519.63013	4.31155
3517.70156	4.36144
3515.77300	4.41155
3513.84443	4.46446
3511.91587	4.51905
3509.98730	4.57387
3508.05874	4.62478
3506.13018	4.66614
3504.20161	4.70554
3502.27305	4.75313
3500.34448	4.80006
3498.41592	4.83885
3496.48735	4.88336
3494.55879	4.93696
3492.63022	4.98636
3490.70166	5.02873
3488.77310	5.07330
3486.84453	5.12630
3484.91597	5.18360
3482.98740	5.23760
3481.05884	5.28349
3479.13027	5.32112
3477.20171	5.36176
3475.27314	5.41119
3473.34458	5.46292
3471.41602	5.51597
3469.48745	5.57311
3467.55889	5.62522
3465.63032	5.66646
3463.70176	5.71174
3461.77319	5.76487
3459.84463	5.81883
3457.91606	5.87333
3455.98750	5.93017
3454.05894	5.98498
3452.13037	6.02945
3450.20181	6.07087
3448.27324	6.11650
3446.34468	6.16687
3444.41611	6.21955
3442.48755	6.27157
3440.55898	6.32791
3438.63042	6.38388
3436.70186	6.42172
3434.77329	6.45715
3432.84473	6.50828
3430.91616	6.55968
3428.98760	6.60975
3427.05903	6.65537
3425.13047	6.69713
3423.20190	6.74346
3421.27334	6.80237
3419.34478	6.87839
3417.41621	6.93673
3415.48765	6.93790
3413.55908	6.92158
3411.63052	6.94806
3409.70195	7.02355
3407.77339	7.12794
3405.84482	7.19171
3403.91626	7.19759
3401.98770	7.20455
3400.05913	7.23957
3398.13057	7.30776
3396.20200	7.41012
3394.27344	7.51143
3392.34487	7.54743
3390.41631	7.55169
3388.48774	7.57164
3386.55918	7.59134
3384.63062	7.59862
3382.70205	7.63242
3380.77349	7.66208
3378.84492	7.62460
3376.91636	7.60635
3374.98779	7.66030
3373.05923	7.73969
3371.13066	7.77224
3369.20210	7.76574
3367.27354	7.77874
3365.34497	7.83135
3363.41641	7.89989
3361.48784	7.94189
3359.55928	7.93494
3357.63071	7.87330
3355.70215	7.83862
3353.77358	7.89203
3351.84502	8.01002
3349.91646	8.12962
3347.98789	8.19882
3346.05933	8.17270
3344.13076	8.10604
3342.20220	8.10390
3340.27363	8.12858
3338.34507	8.14678
3336.41650	8.15557
3334.48794	8.15050
3332.55937	8.12933
3330.63081	8.08551
3328.70225	8.04444
3326.77368	8.05672
3324.84512	8.16023
3322.91655	8.33724
3320.98799	8.40153
3319.05942	8.22966
3317.13086	8.13169
3315.20229	8.18971
3313.27373	8.18421
3311.34517	8.09089
3309.41660	8.00572
3307.48804	7.95517
3305.55947	7.97965
3303.63091	8.08566
3301.70234	8.16043
3299.77378	8.20190
3297.84521	8.30107
3295.91665	8.35028
3293.98809	8.23647
3292.05952	8.07850
3290.13096	7.93963
3288.20239	7.89327
3286.27383	8.06129
3284.34526	8.32816
3282.41670	8.42241
3280.48813	8.37030
3278.55957	8.30817
3276.63101	8.20114
3274.70244	8.16526
3272.77388	8.28181
3270.84531	8.34004
3268.91675	8.25057
3266.98818	8.16249
3265.05962	8.19709
3263.13105	8.29559
3261.20249	8.29550
3259.27393	8.23527
3257.34536	8.25639
3255.41680	8.32330
3253.48823	8.34091
3251.55967	8.38319
3249.63110	8.43752
3247.70254	8.39068
3245.77397	8.29543
3243.84541	8.23727
3241.91685	8.25080
3239.98828	8.35488
3238.05972	8.49226
3236.13115	8.51895
3234.20259	8.38668
3232.27402	8.22814
3230.34546	8.10108
3228.41689	7.96756
3226.48833	7.90119
3224.55977	7.96929
3222.63120	8.05934
3220.70264	8.05791
3218.77407	8.03655
3216.84551	8.08045
3214.91694	8.12977
3212.98838	8.09408
3211.05981	8.07875
3209.13125	8.09960
3207.20269	8.01578
3205.27412	7.89571
3203.34556	7.81740
3201.41699	7.75813
3199.48843	7.73617
3197.55986	7.73390
3195.63130	7.72819
3193.70273	7.74668
3191.77417	7.74175
3189.84561	7.64100
3187.91704	7.49967
3185.98848	7.42881
3184.05991	7.43852
3182.13135	7.44749
3180.20278	7.42236
3178.27422	7.37787
3176.34565	7.31775
3174.41709	7.24081
3172.48853	7.18634
3170.55996	7.17231
3168.63140	7.14864
3166.70283	7.09243
3164.77427	7.02818
3162.84570	6.99559
3160.91714	6.95831
3158.98857	6.86092
3157.06001	6.77062
3155.13145	6.70801
3153.20288	6.62118
3151.27432	6.52710
3149.34575	6.44882
3147.41719	6.38392
3145.48862	6.32968
3143.56006	6.27184
3141.63149	6.20966
3139.70293	6.14243
3137.77437	6.06404
3135.84580	5.98779
3133.91724	5.92164
3131.98867	5.84977
3130.06011	5.76883
3128.13154	5.69382
3126.20298	5.62742
3124.27441	5.56205
3122.34585	5.49064
3120.41729	5.41794
3118.48872	5.35145
3116.56016	5.28091
3114.63159	5.20067
3112.70303	5.12449
3110.77446	5.05464
3108.84590	4.98703
3106.91733	4.92668
3104.98877	4.87007
3103.06021	4.80665
3101.13164	4.73347
3099.20308	4.66073
3097.27451	4.59424
3095.34595	4.52748
3093.41738	4.45891
3091.48882	4.39212
3089.56025	4.32568
3087.63169	4.25724
3085.70312	4.19141
3083.77456	4.13046
3081.84600	4.07005
3079.91743	4.00811
3077.98887	3.94613
3076.06030	3.88492
3074.13174	3.82287
3072.20317	3.76096
3070.27461	3.70319
3068.34604	3.64782
3066.41748	3.58908
3064.48892	3.52896
3062.56035	3.47260
3060.63179	3.41848
3058.70322	3.36440
3056.77466	3.31084
3054.84609	3.25760
3052.91753	3.20394
3050.98896	3.15057
3049.06040	3.09873
3047.13184	3.04730
3045.20327	2.99503
3043.27471	2.94390
3041.34614	2.89477
3039.41758	2.84603
3037.48901	2.79742
3035.56045	2.74961
3033.63188	2.70287
3031.70332	2.65748
3029.77476	2.61385
3027.84619	2.57096
3025.91763	2.52724
3023.98906	2.48309
3022.06050	2.43914
3020.13193	2.39587
3018.20337	2.35429
3016.27480	2.31406
3014.34624	2.27406
3012.41768	2.23392
3010.48911	2.19422
3008.56055	2.15580
3006.63198	2.11861
3004.70342	2.08210
3002.77485	2.04614
3000.84629	2.01055
2998.91772	1.97512
2996.98916	1.94030
2995.06060	1.90676
2993.13203	1.87425
2991.20347	1.84206
2989.27490	1.81018
2987.34634	1.77904
2985.41777	1.74864
2983.48921	1.71849
2981.56064	1.68836
2979.63208	1.65892
2977.70352	1.63073
2975.77495	1.60312
2973.84639	1.57502
2971.91782	1.54653
2969.98926	1.51869
2968.06069	1.49176
2966.13213	1.46544
2964.20356	1.43997
2962.27500	1.41515
2960.34644	1.38988
2958.41787	1.36443
2956.48931	1.34014
2954.56074	1.31684
2952.63218	1.29357
2950.70361	1.27009
2948.77505	1.24697
2946.84648	1.22483
2944.91792	1.20315
2942.98936	1.18136
2941.06079	1.15992
2939.13223	1.13889
2937.20366	1.11770
2935.27510	1.09637
2933.34653	1.07528
2931.41797	1.05461
2929.48940	1.03462
2927.56084	1.01551
2925.63228	0.99672
2923.70371	0.97849
2921.77515	0.96186
2919.84658	0.94642
2917.91802	0.93104
2915.98945	0.91508
2914.06089	0.89907
2912.13232	0.88408
2910.20376	0.86948
2908.27520	0.85458
2906.34663	0.84032
2904.41807	0.82699
2902.48950	0.81372
2900.56094	0.80029
2898.63237	0.78714
2896.70381	0.77434
2894.77524	0.76180
2892.84668	0.74954
2890.91812	0.73763
2888.98955	0.72610
2887.06099	0.71475
2885.13242	0.70358
2883.20386	0.69267
2881.27529	0.68189
2879.34673	0.67109
2877.41816	0.66020
2875.48960	0.64940
2873.56104	0.63886
2871.63247	0.62855
2869.70391	0.61811
2867.77534	0.60721
2865.84678	0.59615
2863.91821	0.58543
2861.98965	0.57489
2860.06108	0.56424
2858.13252	0.55369
2856.20396	0.54368
2854.27539	0.53424
2852.34683	0.52509
2850.41826	0.51669
2848.48970	0.50936
2846.56113	0.50224
2844.63257	0.49510
2842.70400	0.48863
2840.77544	0.48273
2838.84687	0.47684
2836.91831	0.47084
2834.98975	0.46481
2833.06118	0.45882
2831.13262	0.45273
2829.20405	0.44650
2827.27549	0.44053
2825.34692	0.43473
2823.41836	0.42855
2821.48979	0.42209
2819.56123	0.41592
2817.63267	0.41016
2815.70410	0.40460
2813.77554	0.39906
2811.84697	0.39344
2809.91841	0.38778
2807.98984	0.38227
2806.06128	0.37690
2804.13271	0.37166
2802.20415	0.36663
2800.27559	0.36186
2798.34702	0.35716
2796.41846	0.35232
2794.48989	0.34755
2792.56133	0.34305
2790.63276	0.33861
2788.70420	0.33406
2786.77563	0.32952
2784.84707	0.32509
2782.91851	0.32089
2780.98994	0.31687
2779.06138	0.31286
2777.13281	0.30880
2775.20425	0.30495
2773.27568	0.30129
2771.34712	0.29758
2769.41855	0.29379
2767.48999	0.29013
2765.56143	0.28669
2763.63286	0.28343
2761.70430	0.28026
2759.77573	0.27705
2757.84717	0.27383
2755.91860	0.27062
2753.99004	0.26751
2752.06147	0.26454
2750.13291	0.26167
2748.20435	0.25882
2746.27578	0.25601
2744.34722	0.25327
2742.41865	0.25065
2740.49009	0.24812
2738.56152	0.24561
2736.63296	0.24310
2734.70439	0.24059
2732.77583	0.23809
2730.84727	0.23565
2728.91870	0.23330
2726.99014	0.23101
2725.06157	0.22882
2723.13301	0.22673
2721.20444	0.22468
2719.27588	0.22269
2717.34731	0.22081
2715.41875	0.21893
2713.49019	0.21700
2711.56162	0.21515
2709.63306	0.21338
2707.70449	0.21166
2705.77593	0.20997
2703.84736	0.20829
2701.91880	0.20671
2699.99023	0.20525
2698.06167	0.20379
2696.13311	0.20224
2694.20454	0.20061
2692.27598	0.19904
2690.34741	0.19761
2688.41885	0.19634
2686.49028	0.19513
2684.56172	0.19392
2682.63315	0.19273
2680.70459	0.19156
2678.77603	0.19039
2676.84746	0.18933
2674.91890	0.18835
2672.99033	0.18722
2671.06177	0.18593
2669.13320	0.18476
2667.20464	0.18373
2665.27607	0.18271
2663.34751	0.18180
2661.41895	0.18094
2659.49038	0.17999
2657.56182	0.17913
2655.63325	0.17839
2653.70469	0.17771
2651.77612	0.17708
2649.84756	0.17650
2647.91899	0.17592
2645.99043	0.17528
2644.06187	0.17466
2642.13330	0.17413
2640.20474	0.17360
2638.27617	0.17298
2636.34761	0.17240
2634.41904	0.17200
2632.49048	0.17174
2630.56191	0.17141
2628.63335	0.17095
2626.70479	0.17048
2624.77622	0.17006
2622.84766	0.16978
2620.91909	0.16965
2618.99053	0.16947
2617.06196	0.16913
2615.13340	0.16892
2613.20483	0.16889
2611.27627	0.16877
2609.34771	0.16855
2607.41914	0.16836
2605.49058	0.16821
2603.56201	0.16815
2601.63345	0.16817
2599.70488	0.16820
2597.77632	0.16828
2595.84775	0.16837
2593.91919	0.16844
2591.99062	0.16863
2590.06206	0.16892
2588.13350	0.16905
2586.20493	0.16916
2584.27637	0.16947
2582.34780	0.16981
2580.41924	0.17004
2578.49067	0.17024
2576.56211	0.17047
2574.63354	0.17072
2572.70498	0.17104
2570.77642	0.17153
2568.84785	0.17203
2566.91929	0.17256
2564.99072	0.17310
2563.06216	0.17346
2561.13359	0.17363
2559.20503	0.17396
2557.27646	0.17455
2555.34790	0.17521
2553.41934	0.17581
2551.49077	0.17637
2549.56221	0.17699
2547.63364	0.17764
2545.70508	0.17817
2543.77651	0.17869
2541.84795	0.17932
2539.91938	0.17995
2537.99082	0.18056
2536.06226	0.18123
2534.13369	0.18196
2532.20513	0.18269
2530.27656	0.18345
2528.34800	0.18424
2526.41943	0.18492
2524.49087	0.18546
2522.56230	0.18608
2520.63374	0.18684
2518.70518	0.18777
2516.77661	0.18886
2514.84805	0.18983
2512.91948	0.19061
2510.99092	0.19140
2509.06235	0.19217
2507.13379	0.19285
2505.20522	0.19361
2503.27666	0.19452
2501.34810	0.19540
2499.41953	0.19632
2497.49097	0.19726
2495.56240	0.19807
2493.63384	0.19883
2491.70527	0.19967
2489.77671	0.20061
2487.84814	0.20162
2485.91958	0.20266
2483.99102	0.20362
2482.06245	0.20451
2480.13389	0.20541
2478.20532	0.20624
2476.27676	0.20708
2474.34819	0.20806
2472.41963	0.20910
2470.49106	0.21008
2468.56250	0.21103
2466.63394	0.21191
2464.70537	0.21278
2462.77681	0.21373
2460.84824	0.21464
2458.91968	0.21542
2456.99111	0.21630
2455.06255	0.21735
2453.13398	0.21850
2451.20542	0.21961
2449.27686	0.22055
2447.34829	0.22152
2445.41973	0.22262
2443.49116	0.22366
2441.56260	0.22467
2439.63403	0.22582
2437.70547	0.22693
2435.77690	0.22779
2433.84834	0.22865
2431.91978	0.22969
2429.99121	0.23081
2428.06265	0.23191
2426.13408	0.23298
2424.20552	0.23407
2422.27695	0.23523
2420.34839	0.23634
2418.41982	0.23737
2416.49126	0.23855
2414.56270	0.23987
2412.63413	0.24105
2410.70557	0.24203
2408.77700	0.24308
2406.84844	0.24431
2404.91987	0.24558
2402.99131	0.24680
2401.06274	0.24809
2399.13418	0.24943
2397.20562	0.25068
2395.27705	0.25192
2393.34849	0.25325
2391.41992	0.25454
2389.49136	0.25584
2387.56279	0.25729
2385.63423	0.25888
2383.70566	0.26074
2381.77710	0.26301
2379.84854	0.26558
2377.91997	0.26831
2375.99141	0.27120
2374.06284	0.27432
2372.13428	0.27800
2370.20571	0.28240
2368.27715	0.28641
2366.34858	0.28929
2364.42002	0.29213
2362.49146	0.29548
2360.56289	0.29818
2358.63433	0.29960
2356.70576	0.30026
2354.77720	0.30039
2352.84863	0.29982
2350.92007	0.29835
2348.99150	0.29719
2347.06294	0.29767
2345.13437	0.30074
2343.20581	0.30565
2341.27725	0.30907
2339.34868	0.31040
2337.42012	0.31143
2335.49155	0.31249
2333.56299	0.31302
2331.63442	0.31384
2329.70586	0.31581
2327.77729	0.31783
2325.84873	0.31876
2323.92017	0.31929
2321.99160	0.32019
2320.06304	0.32121
2318.13447	0.32178
2316.20591	0.32205
2314.27734	0.32292
2312.34878	0.32440
2310.42021	0.32571
2308.49165	0.32676
2306.56309	0.32790
2304.63452	0.32915
2302.70596	0.33040
2300.77739	0.33174
2298.84883	0.33331
2296.92026	0.33495
2294.99170	0.33642
2293.06313	0.33793
2291.13457	0.33963
2289.20601	0.34143
2287.27744	0.34317
2285.34888	0.34484
2283.42031	0.34661
2281.49175	0.34858
2279.56318	0.35072
2277.63462	0.35293
2275.70605	0.35518
2273.77749	0.35737
2271.84893	0.35935
2269.92036	0.36128
2267.99180	0.36341
2266.06323	0.36570
2264.13467	0.36794
2262.20610	0.37010
2260.27754	0.37225
2258.34897	0.37436
2256.42041	0.37648
2254.49185	0.37868
2252.56328	0.38080
2250.63472	0.38286
2248.70615	0.38506
2246.77759	0.38733
2244.84902	0.38953
2242.92046	0.39171
2240.99189	0.39393
2239.06333	0.39622
2237.13477	0.39849
2235.20620	0.40070
2233.27764	0.40299
2231.34907	0.40537
2229.42051	0.40767
2227.49194	0.40983
2225.56338	0.41202
2223.63481	0.41435
2221.70625	0.41668
2219.77769	0.41886
2217.84912	0.42103
2215.92056	0.42326
2213.99199	0.42543
2212.06343	0.42756
2210.13486	0.42973
2208.20630	0.43192
2206.27773	0.43415
2204.34917	0.43637
2202.42061	0.43848
2200.49204	0.44052
2198.56348	0.44255
2196.63491	0.44456
2194.70635	0.44658
2192.77778	0.44850
2190.84922	0.45036
2188.92065	0.45226
2186.99209	0.45417
2185.06353	0.45601
2183.13496	0.45777
2181.20640	0.45942
2179.27783	0.46096
2177.34927	0.46249
2175.42070	0.46411
2173.49214	0.46576
2171.56357	0.46741
2169.63501	0.46895
2167.70645	0.47025
2165.77788	0.47143
2163.84932	0.47262
2161.92075	0.47376
2159.99219	0.47481
2158.06362	0.47586
2156.13506	0.47688
2154.20649	0.47771
2152.27793	0.47845
2150.34937	0.47920
2148.42080	0.47988
2146.49224	0.48047
2144.56367	0.48090
2142.63511	0.48115
2140.70654	0.48140
2138.77798	0.48172
2136.84941	0.48198
2134.92085	0.48204
2132.99229	0.48197
2131.06372	0.48189
2129.13516	0.48173
2127.20659	0.48141
2125.27803	0.48094
2123.34946	0.48039
2121.42090	0.47980
2119.49233	0.47915
2117.56377	0.47845
2115.63521	0.47767
2113.70664	0.47690
2111.77808	0.47610
2109.84951	0.47511
2107.92095	0.47402
2105.99238	0.47291
2104.06382	0.47163
2102.13525	0.47019
2100.20669	0.46878
2098.27812	0.46726
2096.34956	0.46562
2094.42100	0.46402
2092.49243	0.46250
2090.56387	0.46093
2088.63530	0.45918
2086.70674	0.45724
2084.77817	0.45522
2082.84961	0.45326
2080.92104	0.45133
2078.99248	0.44932
2077.06392	0.44713
2075.13535	0.44479
2073.20679	0.44240
2071.27822	0.43989
2069.34966	0.43738
2067.42109	0.43511
2065.49253	0.43303
2063.56396	0.43075
2061.63540	0.42822
2059.70684	0.42559
2057.77827	0.42279
2055.84971	0.41992
2053.92114	0.41719
2051.99258	0.41467
2050.06401	0.41214
2048.13545	0.40943
2046.20688	0.40661
2044.27832	0.40390
2042.34976	0.40118
2040.42119	0.39827
2038.49263	0.39530
2036.56406	0.39249
2034.63550	0.38976
2032.70693	0.38691
2030.77837	0.38401
2028.84980	0.38119
2026.92124	0.37838
2024.99268	0.37545
2023.06411	0.37250
2021.13555	0.36970
2019.20698	0.36701
2017.27842	0.36422
2015.34985	0.36123
2013.42129	0.35821
2011.49272	0.35530
2009.56416	0.35254
2007.63560	0.34978
2005.70703	0.34694
2003.77847	0.34413
2001.84990	0.34150
1999.92134	0.33892
1997.99277	0.33625
1996.06421	0.33355
1994.13564	0.33094
1992.20708	0.32846
1990.27852	0.32586
1988.34995	0.32317
1986.42139	0.32049
1984.49282	0.31788
1982.56426	0.31540
1980.63569	0.31298
1978.70713	0.31060
1976.77856	0.30826
1974.85000	0.30602
1972.92144	0.30383
1970.99287	0.30166
1969.06431	0.29962
1967.13574	0.29768
1965.20718	0.29557
1963.27861	0.29342
1961.35005	0.29137
1959.42148	0.28934
1957.49292	0.28740
1955.56436	0.28556
1953.63579	0.28371
1951.70723	0.28185
1949.77866	0.28009
1947.85010	0.27852
1945.92153	0.27711
1943.99297	0.27578
1942.06440	0.27428
1940.13584	0.27249
1938.20728	0.27078
1936.27871	0.26937
1934.35015	0.26809
1932.42158	0.26675
1930.49302	0.26543
1928.56445	0.26418
1926.63589	0.26308
1924.70732	0.26233
1922.77876	0.26163
1920.85020	0.26060
1918.92163	0.25955
1916.99307	0.25855
1915.06450	0.25738
1913.13594	0.25631
1911.20737	0.25563
1909.27881	0.25507
1907.35024	0.25436
1905.42168	0.25355
1903.49312	0.25284
1901.56455	0.25224
1899.63599	0.25165
1897.70742	0.25118
1895.77886	0.25089
1893.85029	0.25056
1891.92173	0.25015
1889.99316	0.24999
1888.06460	0.24981
1886.13604	0.24941
1884.20747	0.24905
1882.27891	0.24875
1880.35034	0.24851
1878.42178	0.24840
1876.49321	0.24835
1874.56465	0.24826
1872.63608	0.24835
1870.70752	0.24889
1868.77896	0.24990
1866.85039	0.25039
1864.92183	0.25000
1862.99326	0.24964
1861.06470	0.24968
1859.13613	0.24997
1857.20757	0.25026
1855.27900	0.25065
1853.35044	0.25111
1851.42187	0.25167
1849.49331	0.25241
1847.56475	0.25337
1845.63618	0.25449
1843.70762	0.25559
1841.77905	0.25610
1839.85049	0.25627
1837.92192	0.25693
1835.99336	0.25785
1834.06479	0.25876
1832.13623	0.25985
1830.20767	0.26147
1828.27910	0.26305
1826.35054	0.26408
1824.42197	0.26522
1822.49341	0.26627
1820.56484	0.26736
1818.63628	0.26884
1816.70771	0.27063
1814.77915	0.27229
1812.85059	0.27409
1810.92202	0.27633
1808.99346	0.27847
1807.06489	0.28024
1805.13633	0.28202
1803.20776	0.28431
1801.27920	0.28706
1799.35063	0.28998
1797.42207	0.29246
1795.49351	0.29486
1793.56494	0.29788
1791.63638	0.30182
1789.70781	0.30520
1787.77925	0.30751
1785.85068	0.31050
1783.92212	0.31430
1781.99355	0.31840
1780.06499	0.32263
1778.13643	0.32687
1776.20786	0.33100
1774.27930	0.33574
1772.35073	0.34218
1770.42217	0.34872
1768.49360	0.35376
1766.56504	0.35862
1764.63647	0.36381
1762.70791	0.36982
1760.77935	0.37745
1758.85078	0.38443
1756.92222	0.39135
1754.99365	0.39898
1753.06509	0.40615
1751.13652	0.41492
1749.20796	0.42582
1747.27939	0.43622
1745.35083	0.44529
1743.42227	0.45478
1741.49370	0.46521
1739.56514	0.47778
1737.63657	0.49066
1735.70801	0.50215
1733.77944	0.51941
1731.85088	0.53962
1729.92231	0.55509
1727.99375	0.57060
1726.06519	0.58756
1724.13662	0.60657
1722.20806	0.62716
1720.27949	0.64621
1718.35093	0.66863
1716.42236	0.70143
1714.49380	0.73227
1712.56523	0.75704
1710.63667	0.78111
1708.70811	0.80718
1706.77954	0.83699
1704.85098	0.87240
1702.92241	0.90374
1700.99385	0.93462
1699.06528	0.98090
1697.13672	1.02334
1695.20815	1.06619
1693.27959	1.10797
1691.35103	1.14178
1689.42246	1.18097
1687.49390	1.22187
1685.56533	1.26073
1683.63677	1.32109
1681.70820	1.38408
1679.77964	1.42378
1677.85107	1.46169
1675.92251	1.50531
1673.99395	1.55882
1672.06538	1.60625
1670.13682	1.65272
1668.20825	1.71318
1666.27969	1.76178
1664.35112	1.80220
1662.42256	1.85217
1660.49399	1.90910
1658.56543	1.95307
1656.63687	1.98877
1654.70830	2.02229
1652.77974	2.07603
1650.85117	2.13044
1648.92261	2.15157
1646.99404	2.17747
1645.06548	2.20663
1643.13691	2.22822
1641.20835	2.24237
1639.27979	2.25588
1637.35122	2.26542
1635.42266	2.26679
1633.49409	2.25935
1631.56553	2.24608
1629.63696	2.23087
1627.70840	2.20612
1625.77983	2.17786
1623.85127	2.14023
1621.92271	2.09096
1619.99414	2.04672
1618.06558	2.00527
1616.13701	1.94640
1614.20845	1.88454
1612.27988	1.83705
1610.35132	1.78846
1608.42275	1.73638
1606.49419	1.68436
1604.56562	1.63541
1602.63706	1.58770
1600.70850	1.54106
1598.77993	1.49782
1596.85137	1.45690
1594.92280	1.41741
1592.99424	1.37921
1591.06567	1.34372
1589.13711	1.31036
1587.20854	1.27925
1585.27998	1.25016
1583.35142	1.22252
1581.42285	1.19667
1579.49429	1.17430
1577.56572	1.15442
1575.63716	1.13010
1573.70859	1.10796
1571.78003	1.09318
1569.85146	1.07767
1567.92290	1.06018
1565.99434	1.04662
1564.06577	1.03553
1562.13721	1.02638
1560.20864	1.01964
1558.28008	1.00936
1556.35151	0.99853
1554.42295	0.99148
1552.49438	0.98473
1550.56582	0.97739
1548.63726	0.96913
1546.70869	0.96114
1544.78013	0.95284
1542.85156	0.94322
1540.92300	0.93070
1538.99443	0.91165
1537.06587	0.89737
1535.13730	0.88803
1533.20874	0.87608
1531.28018	0.86277
1529.35161	0.85268
1527.42305	0.84361
1525.49448	0.83481
1523.56592	0.82739
1521.63735	0.81964
1519.70879	0.81076
1517.78022	0.80328
1515.85166	0.79544
1513.92310	0.78730
1511.99453	0.78048
1510.06597	0.77483
1508.13740	0.76973
1506.20884	0.76058
1504.28027	0.75125
1502.35171	0.74587
1500.42314	0.74157
1498.49458	0.73726
1496.56602	0.73197
1494.63745	0.72630
1492.70889	0.72218
1490.78032	0.71916
1488.85176	0.71547
1486.92319	0.71112
1484.99463	0.70740
1483.06606	0.70447
1481.13750	0.70197
1479.20894	0.69983
1477.28037	0.69836
1475.35181	0.69755
1473.42324	0.69689
1471.49468	0.69463
1469.56611	0.69118
1467.63755	0.68840
1465.70898	0.68636
1463.78042	0.68449
1461.85186	0.68286
1459.92329	0.68187
1457.99473	0.68129
1456.06616	0.67962
1454.13760	0.67663
1452.20903	0.67380
1450.28047	0.67130
1448.35190	0.66909
1446.42334	0.66679
1444.49478	0.66443
1442.56621	0.66226
1440.63765	0.66021
1438.70908	0.65837
1436.78052	0.65651
1434.85195	0.65423
1432.92339	0.65193
1430.99482	0.65012
1429.06626	0.64871
1427.13770	0.64754
1425.20913	0.64681
1423.28057	0.64636
1421.35200	0.64579
1419.42344	0.64509
1417.49487	0.64397
1415.56631	0.64223
1413.63774	0.64059
1411.70918	0.63940
1409.78062	0.63864
1407.85205	0.63812
1405.92349	0.63774
1403.99492	0.63714
1402.06636	0.63611
1400.13779	0.63502
1398.20923	0.63366
1396.28066	0.63174
1394.35210	0.62926
1392.42354	0.62651
1390.49497	0.62406
1388.56641	0.62196
1386.63784	0.61963
1384.70928	0.61691
1382.78071	0.61419
1380.85215	0.61174
1378.92358	0.60984
1376.99502	0.60859
1375.06646	0.60781
1373.13789	0.60696
1371.20933	0.60589
1369.28076	0.60488
1367.35220	0.60385
1365.42363	0.60285
1363.49507	0.60203
1361.56650	0.60088
1359.63794	0.59929
1357.70937	0.59785
1355.78081	0.59666
1353.85225	0.59564
1351.92368	0.59470
1349.99512	0.59374
1348.06655	0.59268
1346.13799	0.59157
1344.20942	0.59060
1342.28086	0.58986
1340.35229	0.58928
1338.42373	0.58836
1336.49517	0.58702
1334.56660	0.58592
1332.63804	0.58523
1330.70947	0.58462
1328.78091	0.58394
1326.85234	0.58339
1324.92378	0.58312
1322.99521	0.58312
1321.06665	0.58319
1319.13809	0.58303
1317.20952	0.58252
1315.28096	0.58174
1313.35239	0.58086
1311.42383	0.57995
1309.49526	0.57897
1307.56670	0.57804
1305.63813	0.57730
1303.70957	0.57658
1301.78101	0.57570
1299.85244	0.57469
1297.92388	0.57369
1295.99531	0.57270
1294.06675	0.57163
1292.13818	0.57046
1290.20962	0.56930
1288.28105	0.56828
1286.35249	0.56737
1284.42393	0.56647
1282.49536	0.56557
1280.56680	0.56475
1278.63823	0.56395
1276.70967	0.56311
1274.78110	0.56229
1272.85254	0.56155
1270.92397	0.56098
1268.99541	0.56057
1267.06685	0.56007
1265.13828	0.55943
1263.20972	0.55895
1261.28115	0.55859
1259.35259	0.55821
1257.42402	0.55785
1255.49546	0.55753
1253.56689	0.55722
1251.63833	0.55691
1249.70977	0.55675
1247.78120	0.55680
1245.85264	0.55675
1243.92407	0.55632
1241.99551	0.55562
1240.06694	0.55477
1238.13838	0.55367
1236.20981	0.55241
1234.28125	0.55118
1232.35269	0.54993
1230.42412	0.54861
1228.49556	0.54736
1226.56699	0.54614
1224.63843	0.54478
1222.70986	0.54335
1220.78130	0.54200
1218.85273	0.54084
1216.92417	0.53988
1214.99561	0.53893
1213.06704	0.53793
1211.13848	0.53713
1209.20991	0.53657
1207.28135	0.53606
1205.35278	0.53541
1203.42422	0.53465
1201.49565	0.53393
1199.56709	0.53328
1197.63853	0.53256
1195.70996	0.53177
1193.78140	0.53099
1191.85283	0.53036
1189.92427	0.52986
1187.99570	0.52933
1186.06714	0.52872
1184.13857	0.52834
1182.21001	0.52848
1180.28145	0.52906
1178.35288	0.52988
1176.42432	0.53078
1174.49575	0.53159
1172.56719	0.53243
1170.63862	0.53335
1168.71006	0.53424
1166.78149	0.53509
1164.85293	0.53585
1162.92437	0.53638
1160.99580	0.53672
1159.06724	0.53690
1157.13867	0.53678
1155.21011	0.53620
1153.28154	0.53504
1151.35298	0.53338
1149.42441	0.53125
1147.49585	0.52868
1145.56729	0.52589
1143.63872	0.52320
1141.71016	0.52076
1139.78159	0.51852
1137.85303	0.51651
1135.92446	0.51491
1133.99590	0.51374
1132.06733	0.51292
1130.13877	0.51239
1128.21021	0.51192
1126.28164	0.51135
1124.35308	0.51087
1122.42451	0.51054
1120.49595	0.51019
1118.56738	0.50991
1116.63882	0.51000
1114.71025	0.51071
1112.78169	0.51173
1110.85312	0.51250
1108.92456	0.51309
1106.99600	0.51389
1105.06743	0.51489
1103.13887	0.51594
1101.21030	0.51712
1099.28174	0.51864
1097.35317	0.52066
1095.42461	0.52319
1093.49604	0.52659
1091.56748	0.53136
1089.63892	0.53739
1087.71035	0.54449
1085.78179	0.55262
1083.85322	0.56112
1081.92466	0.56868
1079.99609	0.57429
1078.06753	0.57754
1076.13896	0.57805
1074.21040	0.57546
1072.28184	0.57002
1070.35327	0.56318
1068.42471	0.55646
1066.49614	0.55016
1064.56758	0.54404
1062.63901	0.53855
1060.71045	0.53389
1058.78188	0.52974
1056.85332	0.52603
1054.92476	0.52271
1052.99619	0.51973
1051.06763	0.51740
1049.13906	0.51590
1047.21050	0.51513
1045.28193	0.51488
1043.35337	0.51495
1041.42480	0.51520
1039.49624	0.51551
1037.56768	0.51575
1035.63911	0.51572
1033.71055	0.51523
1031.78198	0.51425
1029.85342	0.51296
1027.92485	0.51168
1025.99629	0.51052
1024.06772	0.50950
1022.13916	0.50873
1020.21060	0.50835
1018.28203	0.50840
1016.35347	0.50866
1014.42490	0.50876
1012.49634	0.50880
1010.56777	0.50897
1008.63921	0.50906
1006.71064	0.50919
1004.78208	0.51007
1002.85352	0.51204
1000.92495	0.51460
998.99639	0.51755
997.06782	0.52126
995.13926	0.52553
993.21069	0.52953
991.28213	0.53270
989.35356	0.53478
987.42500	0.53564
985.49644	0.53570
983.56787	0.53577
981.63931	0.53621
979.71074	0.53703
977.78218	0.53833
975.85361	0.54027
973.92505	0.54286
971.99648	0.54594
970.06792	0.54933
968.13936	0.55293
966.21079	0.55677
964.28223	0.56107
962.35366	0.56593
960.42510	0.57110
958.49653	0.57643
956.56797	0.58219
954.63940	0.58844
952.71084	0.59469
950.78228	0.60100
948.85371	0.60753
946.92515	0.61392
944.99658	0.61990
943.06802	0.62560
941.13945	0.63120
939.21089	0.63685
937.28232	0.64267
935.35376	0.64833
933.42520	0.65378
931.49663	0.65931
929.56807	0.66488
927.63950	0.67052
925.71094	0.67636
923.78237	0.68255
921.85381	0.68911
919.92524	0.69613
917.99668	0.70405
916.06812	0.71242
914.13955	0.71972
912.21099	0.72593
910.28242	0.73302
908.35386	0.74196
906.42529	0.75184
904.49673	0.76159
902.56816	0.77117
900.63960	0.78029
898.71104	0.78885
896.78247	0.79858
894.85391	0.80983
892.92534	0.82087
890.99678	0.83084
889.06821	0.83989
887.13965	0.84875
885.21108	0.85842
883.28252	0.86999
881.35396	0.88296
879.42539	0.89557
877.49683	0.90758
875.56826	0.91935
873.63970	0.93063
871.71113	0.94172
869.78257	0.95268
867.85400	0.96339
865.92544	0.97485
863.99687	0.98750
862.06831	0.99954
860.13975	1.00985
858.21118	1.02009
856.28262	1.03109
854.35405	1.04239
852.42549	1.05338
850.49692	1.06423
848.56836	1.07587
846.63979	1.08748
844.71123	1.09896
842.78267	1.11085
840.85410	1.12191
838.92554	1.13088
836.99697	1.13972
835.06841	1.15117
833.13984	1.16329
831.21128	1.17469
829.28271	1.18878
827.35415	1.20308
825.42559	1.21089
823.49702	1.21632
821.56846	1.22414
819.63989	1.23353
817.71133	1.24347
815.78276	1.25079
813.85420	1.25603
811.92563	1.26611
809.99707	1.28168
808.06851	1.29180
806.13994	1.29507
804.21138	1.29736
802.28281	1.30392
800.35425	1.31338
798.42568	1.31086
796.49712	1.30433
794.56855	1.30903
792.63999	1.31975
790.71143	1.33424
788.78286	1.33491
786.85430	1.31584
784.92573	1.31911
782.99717	1.33530
781.06860	1.33049
779.14004	1.33090
777.21147	1.34669
775.28291	1.37861
773.35435	1.39900
771.42578	1.33717
769.49722	1.24829
767.56865	1.20981
765.64009	1.20088
763.71152	1.16938
761.78296	1.12210
759.85439	1.08895
757.92583	1.07940
755.99727	1.07793
754.06870	1.06092
752.14014	1.06959
750.21157	1.14179
748.28301	1.16836
746.35444	1.07522
744.42588	0.99226
742.49731	0.96461
740.56875	1.00665
738.64019	1.09773
736.71162	1.06827
734.78306	0.99107
732.85449	1.00760
730.92593	0.87378
728.99736	0.63966
727.06880	0.46180
725.14023	0.34970
723.21167	0.31604
721.28311	0.25255
719.35454	0.08300
717.42598	-0.13778
715.49741	-0.32704
713.56885	-0.45287
711.64028	-0.30539
709.71172	-0.03727
707.78315	-0.01530
705.85459	-0.07104
703.92603	-0.06809
701.99746	-0.01193
700.06890	0.06603
698.14033	0.14468
696.21177	0.22963
694.28320	0.30186
692.35464	0.32351
690.42607	0.33658
688.49751	0.33832
686.56895	0.25358
684.64038	0.16143
682.71182	0.16835
680.78325	0.20201
678.85469	0.25401
676.92612	0.34942
674.99756	0.37393
673.06899	0.30090
671.14043	0.27369
669.21187	0.27971
667.28330	0.24831
665.35474	0.25445
663.42617	0.32206
661.49761	0.29061
659.56904	0.19896
657.64048	0.20084
655.71191	0.25083
653.78335	0.31127
651.85479	0.37448
649.92622	0.34991
647.99766	0.27730
646.06909	0.27781
644.14053	0.30034
642.21196	0.27179
640.28340	0.23220
638.35483	0.26703
636.42627	0.30356
634.49771	0.21145
632.56914	0.13027
630.64058	0.14725
628.71201	0.20014
626.78345	0.23400
624.85488	0.26268
622.92632	0.27660
620.99775	0.25319
619.06919	0.22377
617.14062	0.21445
615.21206	0.21045
613.28350	0.20144
611.35493	0.17132
609.42637	0.14864
607.49780	0.17056
605.56924	0.23376
603.64067	0.28984
601.71211	0.27758
599.78354	0.26787
597.85498	0.34101
595.92642	0.45631
593.99785	0.43529
592.06929	0.28154
590.14072	0.17830
588.21216	0.15190
586.28359	0.15248
584.35503	0.11993
582.42646	0.10781
580.49790	0.18702
578.56934	0.28377
576.64077	0.29596
574.71221	0.24842
572.78364	0.18589
570.85508	0.12475
568.92651	0.06548
566.99795	0.05044
565.06938	0.12339
563.14082	0.23687
561.21226	0.26949
559.28369	0.23003
557.35513	0.22208
555.42656	0.23611
553.49800	0.24293
551.56943	0.27026
549.64087	0.26529
547.71230	0.21002
545.78374	0.22018
543.85518	0.28918
541.92661	0.36905
539.99805	0.41115
538.06948	0.32431
536.14092	0.22441
534.21235	0.19073
532.28379	0.18771
530.35522	0.22093
528.42666	0.28295
526.49810	0.30353
524.56953	0.28440
522.64097	0.24626
520.71240	0.17976
518.78384	0.14122
516.85527	0.16445
514.92671	0.21596
512.99814	0.24136
511.06958	0.24646
509.14102	0.23992
507.21245	0.18934
505.28389	0.12708
503.35532	0.11603
501.42676	0.17428
499.49819	0.25465
