3997.91411	0.06741
3995.98555	0.06781
3994.05698	0.06884
3992.12842	0.06954
3990.19985	0.06980
3988.27129	0.06977
3986.34272	0.06953
3984.41416	0.06969
3982.48560	0.07002
3980.55703	0.07011
3978.62847	0.07045
3976.69990	0.07139
3974.77134	0.07248
3972.84277	0.07298
3970.91421	0.07283
3968.98564	0.07250
3967.05708	0.07226
3965.12852	0.07245
3963.19995	0.07325
3961.27139	0.07396
3959.34282	0.07383
3957.41426	0.07339
3955.48569	0.07353
3953.55713	0.07421
3951.62856	0.07545
3949.70000	0.07732
3947.77144	0.07837
3945.84287	0.07781
3943.91431	0.07772
3941.98574	0.07808
3940.05718	0.07631
3938.12861	0.07378
3936.20005	0.07348
3934.27148	0.07562
3932.34292	0.07876
3930.41436	0.08043
3928.48579	0.07932
3926.55723	0.07806
3924.62866	0.07876
3922.70010	0.07906
3920.77153	0.07789
3918.84297	0.07808
3916.91440	0.07920
3914.98584	0.07790
3913.05728	0.07482
3911.12871	0.07289
3909.20015	0.07266
3907.27158	0.07478
3905.34302	0.08069
3903.41445	0.08823
3901.48589	0.09175
3899.55732	0.08997
3897.62876	0.08468
3895.70020	0.07929
3893.77163	0.07810
3891.84307	0.08095
3889.91450	0.08209
3887.98594	0.08031
3886.05737	0.08126
3884.12881	0.08437
3882.20024	0.08577
3880.27168	0.08610
3878.34312	0.08364
3876.41455	0.08034
3874.48599	0.08163
3872.55742	0.08650
3870.62886	0.09107
3868.70029	0.09232
3866.77173	0.09022
3864.84316	0.09063
3862.91460	0.09251
3860.98604	0.08970
3859.05747	0.08576
3857.12891	0.08632
3855.20034	0.09221
3853.27178	0.10217
3851.34321	0.10455
3849.41465	0.09506
3847.48608	0.08687
3845.55752	0.08457
3843.62896	0.08804
3841.70039	0.09458
3839.77183	0.10139
3837.84326	0.10612
3835.91470	0.10500
3833.98613	0.10036
3832.05757	0.09665
3830.12900	0.09424
3828.20044	0.09348
3826.27187	0.09476
3824.34331	0.09730
3822.41475	0.10249
3820.48618	0.11027
3818.55762	0.11225
3816.62905	0.10942
3814.70049	0.10574
3812.77192	0.10012
3810.84336	0.09679
3808.91479	0.09849
3806.98623	0.10380
3805.05767	0.10841
3803.12910	0.11221
3801.20054	0.11785
3799.27197	0.11919
3797.34341	0.11581
3795.41484	0.11292
3793.48628	0.10942
3791.55771	0.10673
3789.62915	0.10668
3787.70059	0.10868
3785.77202	0.11215
3783.84346	0.11542
3781.91489	0.11731
3779.98633	0.11982
3778.05776	0.12193
3776.12920	0.12066
3774.20063	0.11939
3772.27207	0.12163
3770.34351	0.12714
3768.41494	0.13250
3766.48638	0.13476
3764.55781	0.13563
3762.62925	0.13653
3760.70068	0.13942
3758.77212	0.14504
3756.84355	0.14944
3754.91499	0.15172
3752.98643	0.15713
3751.05786	0.16869
3749.12930	0.17851
3747.20073	0.17894
3745.27217	0.17914
3743.34360	0.18199
3741.41504	0.18296
3739.48647	0.18471
3737.55791	0.19173
3735.62935	0.20464
3733.70078	0.21509
3731.77222	0.21436
3729.84365	0.21050
3727.91509	0.21137
3725.98652	0.21778
3724.05796	0.22584
3722.12939	0.23166
3720.20083	0.23521
3718.27227	0.23767
3716.34370	0.24117
3714.41514	0.24844
3712.48657	0.26294
3710.55801	0.28359
3708.62944	0.29737
3706.70088	0.30260
3704.77231	0.30968
3702.84375	0.32285
3700.91519	0.34094
3698.98662	0.35812
3697.05806	0.37368
3695.12949	0.39178
3693.20093	0.41289
3691.27236	0.43843
3689.34380	0.47087
3687.41523	0.50308
3685.48667	0.52629
3683.55811	0.54762
3681.62954	0.57420
3679.70098	0.60757
3677.77241	0.64596
3675.84385	0.69213
3673.91528	0.74642
3671.98672	0.78616
3670.05815	0.82377
3668.12959	0.87362
3666.20103	0.91479
3664.27246	0.95024
3662.34390	0.99186
3660.41533	1.03864
3658.48677	1.08605
3656.55820	1.13776
3654.62964	1.19410
3652.70107	1.24123
3650.77251	1.28718
3648.84395	1.35329
3646.91538	1.42241
3644.98682	1.46236
3643.05825	1.49321
3641.12969	1.53026
3639.20112	1.57412
3637.27256	1.61892
3635.34399	1.66358
3633.41543	1.70996
3631.48687	1.75496
3629.55830	1.80241
3627.62974	1.86042
3625.70117	1.90629
3623.77261	1.93537
3621.84404	1.96769
3619.91548	2.00835
3617.98691	2.05591
3616.05835	2.09877
3614.12979	2.13420
3612.20122	2.17190
3610.27266	2.21070
3608.34409	2.25115
3606.41553	2.29368
3604.48696	2.33184
3602.55840	2.36718
3600.62983	2.40724
3598.70127	2.44946
3596.77271	2.48916
3594.84414	2.53013
3592.91558	2.57172
3590.98701	2.60950
3589.05845	2.64650
3587.12988	2.69206
3585.20132	2.74031
3583.27275	2.78005
3581.34419	2.81675
3579.41562	2.85657
3577.48706	2.89925
3575.55850	2.94233
3573.62993	2.98591
3571.70137	3.02852
3569.77280	3.07057
3567.84424	3.11730
3565.91567	3.17341
3563.98711	3.22317
3562.05854	3.26098
3560.12998	3.30013
3558.20142	3.34375
3556.27285	3.38823
3554.34429	3.43328
3552.41572	3.48293
3550.48716	3.53323
3548.55859	3.58027
3546.63003	3.62813
3544.70146	3.67828
3542.77290	3.72532
3540.84434	3.76874
3538.91577	3.81412
3536.98721	3.86269
3535.05864	3.91366
3533.13008	3.96289
3531.20151	4.00904
3529.27295	4.05797
3527.34438	4.11134
3525.41582	4.15896
3523.48726	4.20207
3521.55869	4.24965
3519.63013	4.29772
3517.70156	4.34586
3515.77300	4.39391
3513.84443	4.43817
3511.91587	4.48231
3509.98730	4.53433
3508.05874	4.59065
3506.13018	4.64278
3504.20161	4.69266
3502.27305	4.74088
3500.34448	4.78547
3498.41592	4.82908
3496.48735	4.87892
3494.55879	4.93627
3492.63022	4.99132
3490.70166	5.03872
3488.77310	5.08346
3486.84453	5.12998
3484.91597	5.17627
3482.98740	5.22055
3481.05884	5.26341
3479.13027	5.30327
3477.20171	5.34476
3475.27314	5.39412
3473.34458	5.44906
3471.41602	5.50552
3469.48745	5.56294
3467.55889	5.61640
3465.63032	5.66026
3463.70176	5.70056
3461.77319	5.74537
3459.84463	5.80203
3457.91606	5.86151
3455.98750	5.90710
3454.05894	5.94865
3452.13037	6.00540
3450.20181	6.06999
3448.27324	6.12390
3446.34468	6.17391
3444.41611	6.22254
3442.48755	6.26470
3440.55898	6.30436
3438.63042	6.35140
3436.70186	6.40852
3434.77329	6.46612
3432.84473	6.51094
3430.91616	6.53596
3428.98760	6.56709
3427.05903	6.62246
3425.13047	6.68534
3423.20190	6.73091
3421.27334	6.76841
3419.34478	6.82114
3417.41621	6.89690
3415.48765	6.98083
3413.55908	7.03353
3411.63052	7.05829
3409.70195	7.09094
3407.77339	7.14302
3405.84482	7.17869
3403.91626	7.19983
3401.98770	7.24682
3400.05913	7.30480
3398.13057	7.35824
3396.20200	7.42951
3394.27344	7.49775
3392.34487	7.51089
3390.41631	7.50207
3388.48774	7.51254
3386.55918	7.54554
3384.63062	7.57689
3382.70205	7.59532
3380.77349	7.61557
3378.84492	7.64351
3376.91636	7.67704
3374.98779	7.69022
3373.05923	7.68328
3371.13066	7.65509
3369.20210	7.65437
3367.27354	7.71564
3365.34497	7.79631
3363.41641	7.87304
3361.48784	7.92575
3359.55928	7.96351
3357.63071	8.01235
3355.70215	8.04438
3353.77358	8.01935
3351.84502	7.97445
3349.91646	7.98334
3347.98789	8.09317
3346.05933	8.19318
3344.13076	8.14129
3342.20220	8.05907
3340.27363	8.06506
3338.34507	8.12301
3336.41650	8.15398
3334.48794	8.12902
3332.55937	8.07304
3330.63081	8.06195
3328.70225	8.11171
3326.77368	8.19050
3324.84512	8.26709
3322.91655	8.29056
3320.98799	8.24712
3319.05942	8.14052
3317.13086	8.04553
3315.20229	8.00097
3313.27373	8.01515
3311.34517	8.11468
3309.41660	8.22962
3307.48804	8.23399
3305.55947	8.16673
3303.63091	8.12730
3301.70234	8.09139
3299.77378	8.05192
3297.84521	8.02358
3295.91665	8.04071
3293.98809	8.14394
3292.05952	8.26297
3290.13096	8.28248
3288.20239	8.27494
3286.27383	8.30674
3284.34526	8.28639
3282.41670	8.27362
3280.48813	8.33135
3278.55957	8.36823
3276.63101	8.33587
3274.70244	8.25101
3272.77388	8.14158
3270.84531	8.09888
3268.91675	8.16660
3266.98818	8.29447
3265.05962	8.43098
3263.13105	8.47230
3261.20249	8.37949
3259.27393	8.24825
3257.34536	8.15187
3255.41680	8.12125
3253.48823	8.16758
3251.55967	8.25171
3249.63110	8.33158
3247.70254	8.38192
3245.77397	8.35660
3243.84541	8.27657
3241.91685	8.16180
3239.98828	8.02780
3238.05972	7.92562
3236.13115	7.93185
3234.20259	8.04985
3232.27402	8.14614
3230.34546	8.18727
3228.41689	8.24833
3226.48833	8.27649
3224.55977	8.25749
3222.63120	8.30407
3220.70264	8.36776
3218.77407	8.30544
3216.84551	8.19073
3214.91694	8.16746
3212.98838	8.19317
3211.05981	8.14964
3209.13125	8.04227
3207.20269	7.90600
3205.27412	7.81076
3203.34556	7.79373
3201.41699	7.78906
3199.48843	7.78745
3197.55986	7.82476
3195.63130	7.86085
3193.70273	7.83465
3191.77417	7.73902
3189.84561	7.62736
3187.91704	7.53831
3185.98848	7.47847
3184.05991	7.44301
3182.13135	7.41709
3180.20278	7.41143
3178.27422	7.38510
3176.34565	7.31423
3174.41709	7.26871
3172.48853	7.24499
3170.55996	7.19453
3168.63140	7.11959
3166.70283	7.04427
3164.77427	6.98135
3162.84570	6.91753
3160.91714	6.85395
3158.98857	6.80355
3157.06001	6.74940
3155.13145	6.68904
3153.20288	6.61820
3151.27432	6.51918
3149.34575	6.42979
3147.41719	6.37893
3145.48862	6.34034
3143.56006	6.29628
3141.63149	6.24220
3139.70293	6.17691
3137.77437	6.10849
3135.84580	6.02622
3133.91724	5.92769
3131.98867	5.83902
3130.06011	5.77200
3128.13154	5.71014
3126.20298	5.64294
3124.27441	5.57814
3122.34585	5.51324
3120.41729	5.44618
3118.48872	5.37935
3116.56016	5.30438
3114.63159	5.22057
3112.70303	5.13993
3110.77446	5.06875
3108.84590	4.99837
3106.91733	4.92504
3104.98877	4.85901
3103.06021	4.80122
3101.13164	4.73961
3099.20308	4.66959
3097.27451	4.59591
3095.34595	4.52271
3093.41738	4.45397
3091.48882	4.39114
3089.56025	4.33134
3087.63169	4.27090
3085.70312	4.20906
3083.77456	4.14726
3081.84600	4.08459
3079.91743	4.02054
3077.98887	3.95854
3076.06030	3.89925
3074.13174	3.83900
3072.20317	3.77921
3070.27461	3.72254
3068.34604	3.66436
3066.41748	3.60271
3064.48892	3.54308
3062.56035	3.48764
3060.63179	3.43328
3058.70322	3.37880
3056.77466	3.32549
3054.84609	3.27275
3052.91753	3.21973
3050.98896	3.16768
3049.06040	3.11671
3047.13184	3.06510
3045.20327	3.01297
3043.27471	2.96180
3041.34614	2.91181
3039.41758	2.86368
3037.48901	2.81698
3035.56045	2.76970
3033.63188	2.72252
3031.70332	2.67721
3029.77476	2.63312
3027.84619	2.58886
3025.91763	2.54436
3023.98906	2.50030
3022.06050	2.45707
3020.13193	2.41462
3018.20337	2.37289
3016.27480	2.33141
3014.34624	2.28999
3012.41768	2.24983
3010.48911	2.21139
3008.56055	2.17398
3006.63198	2.13680
3004.70342	2.09974
3002.77485	2.06334
3000.84629	2.02776
2998.91772	1.99311
2996.98916	1.95952
2995.06060	1.92689
2993.13203	1.89522
2991.20347	1.86432
2989.27490	1.83374
2987.34634	1.80350
2985.41777	1.77383
2983.48921	1.74486
2981.56064	1.71671
2979.63208	1.68902
2977.70352	1.66153
2975.77495	1.63436
2973.84639	1.60781
2971.91782	1.58249
2969.98926	1.55787
2968.06069	1.53280
2966.13213	1.50782
2964.20356	1.48361
2962.27500	1.45956
2960.34644	1.43537
2958.41787	1.41156
2956.48931	1.38766
2954.56074	1.36281
2952.63218	1.33789
2950.70361	1.31405
2948.77505	1.29103
2946.84648	1.26837
2944.91792	1.24634
2942.98936	1.22504
2941.06079	1.20411
2939.13223	1.18357
2937.20366	1.16316
2935.27510	1.14232
2933.34653	1.12122
2931.41797	1.10020
2929.48940	1.07952
2927.56084	1.05956
2925.63228	1.03965
2923.70371	1.01810
2921.77515	0.99521
2919.84658	0.97304
2917.91802	0.95215
2915.98945	0.93308
2914.06089	0.91727
2912.13232	0.90426
2910.20376	0.89197
2908.27520	0.87913
2906.34663	0.86559
2904.41807	0.85165
2902.48950	0.83761
2900.56094	0.82370
2898.63237	0.81007
2896.70381	0.79670
2894.77524	0.78370
2892.84668	0.77117
2890.91812	0.75915
2888.98955	0.74782
2887.06099	0.73674
2885.13242	0.72562
2883.20386	0.71477
2881.27529	0.70440
2879.34673	0.69468
2877.41816	0.68530
2875.48960	0.67568
2873.56104	0.66560
2871.63247	0.65491
2869.70391	0.64338
2867.77534	0.63119
2865.84678	0.61867
2863.91821	0.60624
2861.98965	0.59432
2860.06108	0.58281
2858.13252	0.57148
2856.20396	0.56025
2854.27539	0.54867
2852.34683	0.53623
2850.41826	0.52378
2848.48970	0.51347
2846.56113	0.50660
2844.63257	0.50201
2842.70400	0.49775
2840.77544	0.49278
2838.84687	0.48705
2836.91831	0.48111
2834.98975	0.47522
2833.06118	0.46922
2831.13262	0.46309
2829.20405	0.45682
2827.27549	0.45054
2825.34692	0.44431
2823.41836	0.43800
2821.48979	0.43167
2819.56123	0.42556
2817.63267	0.41956
2815.70410	0.41366
2813.77554	0.40785
2811.84697	0.40205
2809.91841	0.39633
2807.98984	0.39082
2806.06128	0.38550
2804.13271	0.38009
2802.20415	0.37454
2800.27559	0.36915
2798.34702	0.36407
2796.41846	0.35915
2794.48989	0.35425
2792.56133	0.34942
2790.63276	0.34464
2788.70420	0.33988
2786.77563	0.33524
2784.84707	0.33072
2782.91851	0.32625
2780.98994	0.32188
2779.06138	0.31769
2777.13281	0.31369
2775.20425	0.30963
2773.27568	0.30538
2771.34712	0.30117
2769.41855	0.29723
2767.48999	0.29351
2765.56143	0.28993
2763.63286	0.28648
2761.70430	0.28310
2759.77573	0.27958
2757.84717	0.27599
2755.91860	0.27273
2753.99004	0.26972
2752.06147	0.26664
2750.13291	0.26355
2748.20435	0.26053
2746.27578	0.25749
2744.34722	0.25448
2742.41865	0.25167
2740.49009	0.24896
2738.56152	0.24616
2736.63296	0.24339
2734.70439	0.24081
2732.77583	0.23829
2730.84727	0.23571
2728.91870	0.23325
2726.99014	0.23096
2725.06157	0.22866
2723.13301	0.22629
2721.20444	0.22407
2719.27588	0.22206
2717.34731	0.22013
2715.41875	0.21810
2713.49019	0.21599
2711.56162	0.21394
2709.63306	0.21202
2707.70449	0.21024
2705.77593	0.20853
2703.84736	0.20676
2701.91880	0.20500
2699.99023	0.20337
2698.06167	0.20190
2696.13311	0.20049
2694.20454	0.19896
2692.27598	0.19734
2690.34741	0.19583
2688.41885	0.19440
2686.49028	0.19305
2684.56172	0.19189
2682.63315	0.19079
2680.70459	0.18958
2678.77603	0.18823
2676.84746	0.18688
2674.91890	0.18575
2672.99033	0.18481
2671.06177	0.18382
2669.13320	0.18273
2667.20464	0.18165
2665.27607	0.18059
2663.34751	0.17951
2661.41895	0.17849
2659.49038	0.17762
2657.56182	0.17685
2655.63325	0.17607
2653.70469	0.17528
2651.77612	0.17436
2649.84756	0.17344
2647.91899	0.17285
2645.99043	0.17239
2644.06187	0.17166
2642.13330	0.17077
2640.20474	0.16998
2638.27617	0.16938
2636.34761	0.16889
2634.41904	0.16848
2632.49048	0.16817
2630.56191	0.16790
2628.63335	0.16753
2626.70479	0.16707
2624.77622	0.16663
2622.84766	0.16619
2620.91909	0.16580
2618.99053	0.16556
2617.06196	0.16547
2615.13340	0.16540
2613.20483	0.16521
2611.27627	0.16481
2609.34771	0.16446
2607.41914	0.16434
2605.49058	0.16426
2603.56201	0.16407
2601.63345	0.16390
2599.70488	0.16388
2597.77632	0.16403
2595.84775	0.16414
2593.91919	0.16411
2591.99062	0.16411
2590.06206	0.16419
2588.13350	0.16432
2586.20493	0.16450
2584.27637	0.16466
2582.34780	0.16483
2580.41924	0.16515
2578.49067	0.16546
2576.56211	0.16563
2574.63354	0.16581
2572.70498	0.16618
2570.77642	0.16665
2568.84785	0.16706
2566.91929	0.16741
2564.99072	0.16780
2563.06216	0.16810
2561.13359	0.16836
2559.20503	0.16880
2557.27646	0.16938
2555.34790	0.16988
2553.41934	0.17026
2551.49077	0.17076
2549.56221	0.17142
2547.63364	0.17197
2545.70508	0.17245
2543.77651	0.17302
2541.84795	0.17354
2539.91938	0.17404
2537.99082	0.17470
2536.06226	0.17547
2534.13369	0.17621
2532.20513	0.17683
2530.27656	0.17744
2528.34800	0.17818
2526.41943	0.17898
2524.49087	0.17970
2522.56230	0.18039
2520.63374	0.18113
2518.70518	0.18191
2516.77661	0.18274
2514.84805	0.18358
2512.91948	0.18433
2510.99092	0.18509
2509.06235	0.18596
2507.13379	0.18687
2505.20522	0.18774
2503.27666	0.18850
2501.34810	0.18914
2499.41953	0.18985
2497.49097	0.19073
2495.56240	0.19159
2493.63384	0.19233
2491.70527	0.19313
2489.77671	0.19412
2487.84814	0.19513
2485.91958	0.19604
2483.99102	0.19690
2482.06245	0.19776
2480.13389	0.19866
2478.20532	0.19949
2476.27676	0.20020
2474.34819	0.20097
2472.41963	0.20182
2470.49106	0.20264
2468.56250	0.20358
2466.63394	0.20456
2464.70537	0.20547
2462.77681	0.20652
2460.84824	0.20768
2458.91968	0.20867
2456.99111	0.20948
2455.06255	0.21038
2453.13398	0.21143
2451.20542	0.21249
2449.27686	0.21348
2447.34829	0.21445
2445.41973	0.21538
2443.49116	0.21626
2441.56260	0.21722
2439.63403	0.21825
2437.70547	0.21926
2435.77690	0.22034
2433.84834	0.22144
2431.91978	0.22240
2429.99121	0.22338
2428.06265	0.22452
2426.13408	0.22569
2424.20552	0.22686
2422.27695	0.22807
2420.34839	0.22918
2418.41982	0.23021
2416.49126	0.23132
2414.56270	0.23249
2412.63413	0.23365
2410.70557	0.23477
2408.77700	0.23594
2406.84844	0.23720
2404.91987	0.23843
2402.99131	0.23954
2401.06274	0.24068
2399.13418	0.24201
2397.20562	0.24343
2395.27705	0.24475
2393.34849	0.24591
2391.41992	0.24713
2389.49136	0.24874
2387.56279	0.25105
2385.63423	0.25449
2383.70566	0.25958
2381.77710	0.26653
2379.84854	0.27506
2377.91997	0.28473
2375.99141	0.29565
2374.06284	0.30845
2372.13428	0.32311
2370.20571	0.33888
2368.27715	0.35513
2366.34858	0.37101
2364.42002	0.38479
2362.49146	0.39449
2360.56289	0.39994
2358.63433	0.40242
2356.70576	0.39907
2354.77720	0.38725
2352.84863	0.37097
2350.92007	0.35515
2348.99150	0.34565
2347.06294	0.34621
2345.13437	0.35734
2343.20581	0.37265
2341.27725	0.38130
2339.34868	0.38266
2337.42012	0.38115
2335.49155	0.37935
2333.56299	0.37801
2331.63442	0.37740
2329.70586	0.37683
2327.77729	0.37552
2325.84873	0.37301
2323.92017	0.36960
2321.99160	0.36568
2320.06304	0.36105
2318.13447	0.35615
2316.20591	0.35200
2314.27734	0.34935
2312.34878	0.34816
2310.42021	0.34728
2308.49165	0.34552
2306.56309	0.34292
2304.63452	0.34056
2302.70596	0.33944
2300.77739	0.33937
2298.84883	0.33955
2296.92026	0.33973
2294.99170	0.33992
2293.06313	0.34006
2291.13457	0.34014
2289.20601	0.34036
2287.27744	0.34085
2285.34888	0.34148
2283.42031	0.34239
2281.49175	0.34406
2279.56318	0.34647
2277.63462	0.34910
2275.70605	0.35163
2273.77749	0.35393
2271.84893	0.35601
2269.92036	0.35808
2267.99180	0.36019
2266.06323	0.36221
2264.13467	0.36418
2262.20610	0.36617
2260.27754	0.36809
2258.34897	0.36985
2256.42041	0.37160
2254.49185	0.37362
2252.56328	0.37577
2250.63472	0.37778
2248.70615	0.37974
2246.77759	0.38173
2244.84902	0.38376
2242.92046	0.38586
2240.99189	0.38806
2239.06333	0.39028
2237.13477	0.39242
2235.20620	0.39456
2233.27764	0.39685
2231.34907	0.39918
2229.42051	0.40145
2227.49194	0.40368
2225.56338	0.40592
2223.63481	0.40814
2221.70625	0.41035
2219.77769	0.41264
2217.84912	0.41499
2215.92056	0.41717
2213.99199	0.41922
2212.06343	0.42139
2210.13486	0.42372
2208.20630	0.42602
2206.27773	0.42821
2204.34917	0.43031
2202.42061	0.43236
2200.49204	0.43432
2198.56348	0.43620
2196.63491	0.43818
2194.70635	0.44027
2192.77778	0.44227
2190.84922	0.44412
2188.92065	0.44593
2186.99209	0.44777
2185.06353	0.44967
2183.13496	0.45149
2181.20640	0.45315
2179.27783	0.45476
2177.34927	0.45637
2175.42070	0.45787
2173.49214	0.45926
2171.56357	0.46075
2169.63501	0.46231
2167.70645	0.46369
2165.77788	0.46490
2163.84932	0.46614
2161.92075	0.46730
2159.99219	0.46823
2158.06362	0.46910
2156.13506	0.47008
2154.20649	0.47099
2152.27793	0.47177
2150.34937	0.47250
2148.42080	0.47315
2146.49224	0.47365
2144.56367	0.47412
2142.63511	0.47457
2140.70654	0.47488
2138.77798	0.47510
2136.84941	0.47526
2134.92085	0.47531
2132.99229	0.47519
2131.06372	0.47497
2129.13516	0.47469
2127.20659	0.47435
2125.27803	0.47401
2123.34946	0.47362
2121.42090	0.47311
2119.49233	0.47245
2117.56377	0.47161
2115.63521	0.47069
2113.70664	0.46984
2111.77808	0.46896
2109.84951	0.46789
2107.92095	0.46677
2105.99238	0.46562
2104.06382	0.46437
2102.13525	0.46307
2100.20669	0.46170
2098.27812	0.46019
2096.34956	0.45859
2094.42100	0.45690
2092.49243	0.45511
2090.56387	0.45339
2088.63530	0.45166
2086.70674	0.44969
2084.77817	0.44762
2082.84961	0.44561
2080.92104	0.44357
2078.99248	0.44145
2077.06392	0.43926
2075.13535	0.43698
2073.20679	0.43466
2071.27822	0.43229
2069.34966	0.42993
2067.42109	0.42771
2065.49253	0.42557
2063.56396	0.42310
2061.63540	0.42037
2059.70684	0.41773
2057.77827	0.41510
2055.84971	0.41247
2053.92114	0.40992
2051.99258	0.40728
2050.06401	0.40444
2048.13545	0.40157
2046.20688	0.39880
2044.27832	0.39615
2042.34976	0.39357
2040.42119	0.39082
2038.49263	0.38780
2036.56406	0.38478
2034.63550	0.38182
2032.70693	0.37886
2030.77837	0.37601
2028.84980	0.37327
2026.92124	0.37051
2024.99268	0.36768
2023.06411	0.36486
2021.13555	0.36210
2019.20698	0.35951
2017.27842	0.35694
2015.34985	0.35394
2013.42129	0.35069
2011.49272	0.34766
2009.56416	0.34488
2007.63560	0.34209
2005.70703	0.33923
2003.77847	0.33640
2001.84990	0.33375
1999.92134	0.33121
1997.99277	0.32860
1996.06421	0.32604
1994.13564	0.32396
1992.20708	0.32204
1990.27852	0.31944
1988.34995	0.31638
1986.42139	0.31348
1984.49282	0.31079
1982.56426	0.30826
1980.63569	0.30577
1978.70713	0.30327
1976.77856	0.30091
1974.85000	0.29871
1972.92144	0.29659
1970.99287	0.29456
1969.06431	0.29288
1967.13574	0.29143
1965.20718	0.28941
1963.27861	0.28686
1961.35005	0.28443
1959.42148	0.28227
1957.49292	0.28036
1955.56436	0.27863
1953.63579	0.27688
1951.70723	0.27507
1949.77866	0.27341
1947.85010	0.27207
1945.92153	0.27111
1943.99297	0.27048
1942.06440	0.26939
1940.13584	0.26706
1938.20728	0.26453
1936.27871	0.26275
1934.35015	0.26140
1932.42158	0.26013
1930.49302	0.25880
1928.56445	0.25754
1926.63589	0.25668
1924.70732	0.25659
1922.77876	0.25658
1920.85020	0.25565
1918.92163	0.25466
1916.99307	0.25374
1915.06450	0.25207
1913.13594	0.25062
1911.20737	0.25026
1909.27881	0.25012
1907.35024	0.24917
1905.42168	0.24779
1903.49312	0.24683
1901.56455	0.24623
1899.63599	0.24575
1897.70742	0.24559
1895.77886	0.24572
1893.85029	0.24556
1891.92173	0.24525
1889.99316	0.24553
1888.06460	0.24536
1886.13604	0.24433
1884.20747	0.24353
1882.27891	0.24314
1880.35034	0.24294
1878.42178	0.24286
1876.49321	0.24284
1874.56465	0.24285
1872.63608	0.24340
1870.70752	0.24526
1868.77896	0.24787
1866.85039	0.24812
1864.92183	0.24605
1862.99326	0.24464
1861.06470	0.24449
1859.13613	0.24482
1857.20757	0.24509
1855.27900	0.24542
1853.35044	0.24586
1851.42187	0.24652
1849.49331	0.24764
1847.56475	0.24943
1845.63618	0.25184
1843.70762	0.25369
1841.77905	0.25320
1839.85049	0.25209
1837.92192	0.25245
1835.99336	0.25337
1834.06479	0.25418
1832.13623	0.25603
1830.20767	0.25934
1828.27910	0.26146
1826.35054	0.26168
1824.42197	0.26212
1822.49341	0.26241
1820.56484	0.26277
1818.63628	0.26391
1816.70771	0.26558
1814.77915	0.26739
1812.85059	0.26992
1810.92202	0.27302
1808.99346	0.27518
1807.06489	0.27634
1805.13633	0.27784
1803.20776	0.28068
1801.27920	0.28451
1799.35063	0.28788
1797.42207	0.29009
1795.49351	0.29264
1793.56494	0.29677
1791.63638	0.30142
1789.70781	0.30336
1787.77925	0.30394
1785.85068	0.30645
1783.92212	0.31045
1781.99355	0.31499
1780.06499	0.31971
1778.13643	0.32391
1776.20786	0.32821
1774.27930	0.33430
1772.35073	0.34240
1770.42217	0.34871
1768.49360	0.35212
1766.56504	0.35546
1764.63647	0.35995
1762.70791	0.36648
1760.77935	0.37473
1758.85078	0.38171
1756.92222	0.38869
1754.99365	0.39627
1753.06509	0.40386
1751.13652	0.41450
1749.20796	0.42751
1747.27939	0.43791
1745.35083	0.44574
1743.42227	0.45449
1741.49370	0.46487
1739.56514	0.47712
1737.63657	0.48906
1735.70801	0.50061
1733.77944	0.51917
1731.85088	0.53884
1729.92231	0.55228
1727.99375	0.56599
1726.06519	0.58186
1724.13662	0.60064
1722.20806	0.62148
1720.27949	0.64180
1718.35093	0.66747
1716.42236	0.70305
1714.49380	0.73220
1712.56523	0.75393
1710.63667	0.77642
1708.70811	0.80283
1706.77954	0.83454
1704.85098	0.87198
1702.92241	0.90456
1700.99385	0.93769
1699.06528	0.98742
1697.13672	1.03157
1695.20815	1.07422
1693.27959	1.11525
1691.35103	1.15017
1689.42246	1.19288
1687.49390	1.23849
1685.56533	1.28330
1683.63677	1.35129
1681.70820	1.41830
1679.77964	1.45947
1677.85107	1.50017
1675.92251	1.54912
1673.99395	1.61031
1672.06538	1.66461
1670.13682	1.71834
1668.20825	1.78752
1666.27969	1.84260
1664.35112	1.89056
1662.42256	1.95298
1660.49399	2.02447
1658.56543	2.07993
1656.63687	2.12423
1654.70830	2.16304
1652.77974	2.22080
1650.85117	2.27876
1648.92261	2.30002
1646.99404	2.32431
1645.06548	2.34780
1643.13691	2.36355
1641.20835	2.37179
1639.27979	2.37993
1637.35122	2.38504
1635.42266	2.38194
1633.49409	2.37079
1631.56553	2.35510
1629.63696	2.33682
1627.70840	2.30675
1625.77983	2.27202
1623.85127	2.22714
1621.92271	2.17192
1619.99414	2.12430
1618.06558	2.07993
1616.13701	2.01602
1614.20845	1.94820
1612.27988	1.89578
1610.35132	1.84267
1608.42275	1.78653
1606.49419	1.73116
1604.56562	1.68015
1602.63706	1.63171
1600.70850	1.58423
1598.77993	1.53972
1596.85137	1.49862
1594.92280	1.45963
1592.99424	1.42139
1591.06567	1.38587
1589.13711	1.35320
1587.20854	1.32341
1585.27998	1.29594
1583.35142	1.27023
1581.42285	1.24712
1579.49429	1.22867
1577.56572	1.21405
1575.63716	1.19570
1573.70859	1.17716
1571.78003	1.16547
1569.85146	1.15597
1567.92290	1.14537
1565.99434	1.13686
1564.06577	1.13151
1562.13721	1.12898
1560.20864	1.13153
1558.28008	1.14046
1556.35151	1.14313
1554.42295	1.14174
1552.49438	1.14187
1550.56582	1.14168
1548.63726	1.13918
1546.70869	1.13449
1544.78013	1.12805
1542.85156	1.11896
1540.92300	1.10256
1538.99443	1.07031
1537.06587	1.04359
1535.13730	1.02712
1533.20874	1.00716
1531.28018	0.98454
1529.35161	0.96792
1527.42305	0.95393
1525.49448	0.93992
1523.56592	0.92816
1521.63735	0.91765
1519.70879	0.90568
1517.78022	0.89433
1515.85166	0.88089
1513.92310	0.86637
1511.99453	0.85471
1510.06597	0.84624
1508.13740	0.83960
1506.20884	0.82428
1504.28027	0.80559
1502.35171	0.79513
1500.42314	0.78816
1498.49458	0.78195
1496.56602	0.77404
1494.63745	0.76472
1492.70889	0.75814
1490.78032	0.75471
1488.85176	0.75052
1486.92319	0.74322
1484.99463	0.73629
1483.06606	0.73190
1481.13750	0.72924
1479.20894	0.72757
1477.28037	0.72764
1475.35181	0.72965
1473.42324	0.73209
1471.49468	0.73101
1469.56611	0.72643
1467.63755	0.72304
1465.70898	0.72188
1463.78042	0.72102
1461.85186	0.72025
1459.92329	0.72210
1457.99473	0.72683
1456.06616	0.72740
1454.13760	0.72128
1452.20903	0.71598
1450.28047	0.71244
1448.35190	0.70963
1446.42334	0.70611
1444.49478	0.70218
1442.56621	0.69902
1440.63765	0.69663
1438.70908	0.69493
1436.78052	0.69290
1434.85195	0.68893
1432.92339	0.68495
1430.99482	0.68274
1429.06626	0.68153
1427.13770	0.68063
1425.20913	0.68097
1423.28057	0.68244
1421.35200	0.68398
1419.42344	0.68588
1417.49487	0.68596
1415.56631	0.68302
1413.63774	0.68067
1411.70918	0.68013
1409.78062	0.68058
1407.85205	0.68165
1405.92349	0.68373
1403.99492	0.68562
1402.06636	0.68599
1400.13779	0.68596
1398.20923	0.68571
1396.28066	0.68389
1394.35210	0.67947
1392.42354	0.67338
1390.49497	0.66826
1388.56641	0.66432
1386.63784	0.65965
1384.70928	0.65369
1382.78071	0.64815
1380.85215	0.64360
1378.92358	0.63987
1376.99502	0.63742
1375.06646	0.63636
1373.13789	0.63503
1371.20933	0.63306
1369.28076	0.63172
1367.35220	0.63058
1365.42363	0.62946
1363.49507	0.62900
1361.56650	0.62784
1359.63794	0.62516
1357.70937	0.62269
1355.78081	0.62108
1353.85225	0.61979
1351.92368	0.61867
1349.99512	0.61777
1348.06655	0.61676
1346.13799	0.61556
1344.20942	0.61456
1342.28086	0.61438
1340.35229	0.61494
1338.42373	0.61473
1336.49517	0.61305
1334.56660	0.61139
1332.63804	0.61065
1330.70947	0.61062
1328.78091	0.61096
1326.85234	0.61160
1324.92378	0.61258
1322.99521	0.61377
1321.06665	0.61494
1319.13809	0.61586
1317.20952	0.61633
1315.28096	0.61641
1313.35239	0.61610
1311.42383	0.61517
1309.49526	0.61389
1307.56670	0.61278
1305.63813	0.61194
1303.70957	0.61122
1301.78101	0.61046
1299.85244	0.60950
1297.92388	0.60827
1295.99531	0.60678
1294.06675	0.60519
1292.13818	0.60373
1290.20962	0.60240
1288.28105	0.60110
1286.35249	0.59966
1284.42393	0.59805
1282.49536	0.59656
1280.56680	0.59528
1278.63823	0.59390
1276.70967	0.59239
1274.78110	0.59113
1272.85254	0.59017
1270.92397	0.58932
1268.99541	0.58845
1267.06685	0.58770
1265.13828	0.58703
1263.20972	0.58630
1261.28115	0.58550
1259.35259	0.58468
1257.42402	0.58386
1255.49546	0.58331
1253.56689	0.58318
1251.63833	0.58323
1249.70977	0.58322
1247.78120	0.58316
1245.85264	0.58297
1243.92407	0.58240
1241.99551	0.58146
1240.06694	0.58017
1238.13838	0.57830
1236.20981	0.57595
1234.28125	0.57343
1232.35269	0.57095
1230.42412	0.56872
1228.49556	0.56671
1226.56699	0.56457
1224.63843	0.56236
1222.70986	0.56033
1220.78130	0.55848
1218.85273	0.55674
1216.92417	0.55517
1214.99561	0.55386
1213.06704	0.55294
1211.13848	0.55233
1209.20991	0.55177
1207.28135	0.55116
1205.35278	0.55053
1203.42422	0.54962
1201.49565	0.54843
1199.56709	0.54732
1197.63853	0.54631
1195.70996	0.54519
1193.78140	0.54421
1191.85283	0.54362
1189.92427	0.54333
1187.99570	0.54310
1186.06714	0.54277
1184.13857	0.54265
1182.21001	0.54319
1180.28145	0.54447
1178.35288	0.54620
1176.42432	0.54787
1174.49575	0.54924
1172.56719	0.55032
1170.63862	0.55112
1168.71006	0.55171
1166.78149	0.55212
1164.85293	0.55239
1162.92437	0.55248
1160.99580	0.55252
1159.06724	0.55250
1157.13867	0.55211
1155.21011	0.55124
1153.28154	0.55010
1151.35298	0.54863
1149.42441	0.54651
1147.49585	0.54368
1145.56729	0.54051
1143.63872	0.53741
1141.71016	0.53471
1139.78159	0.53268
1137.85303	0.53140
1135.92446	0.53073
1133.99590	0.53043
1132.06733	0.53046
1130.13877	0.53067
1128.21021	0.53072
1126.28164	0.53043
1124.35308	0.52995
1122.42451	0.52960
1120.49595	0.52945
1118.56738	0.52962
1116.63882	0.53002
1114.71025	0.53044
1112.78169	0.53105
1110.85312	0.53188
1108.92456	0.53277
1106.99600	0.53380
1105.06743	0.53499
1103.13887	0.53608
1101.21030	0.53714
1099.28174	0.53857
1097.35317	0.54044
1095.42461	0.54277
1093.49604	0.54595
1091.56748	0.55057
1089.63892	0.55686
1087.71035	0.56464
1085.78179	0.57351
1083.85322	0.58246
1081.92466	0.58994
1079.99609	0.59519
1078.06753	0.59802
1076.13896	0.59771
1074.21040	0.59426
1072.28184	0.58878
1070.35327	0.58219
1068.42471	0.57501
1066.49614	0.56779
1064.56758	0.56109
1062.63901	0.55535
1060.71045	0.55081
1058.78188	0.54706
1056.85332	0.54335
1054.92476	0.53954
1052.99619	0.53621
1051.06763	0.53372
1049.13906	0.53179
1047.21050	0.53060
1045.28193	0.53049
1043.35337	0.53072
1041.42480	0.53065
1039.49624	0.53040
1037.56768	0.53017
1035.63911	0.52986
1033.71055	0.52924
1031.78198	0.52808
1029.85342	0.52642
1027.92485	0.52458
1025.99629	0.52289
1024.06772	0.52143
1022.13916	0.52011
1020.21060	0.51904
1018.28203	0.51851
1016.35347	0.51838
1014.42490	0.51821
1012.49634	0.51784
1010.56777	0.51748
1008.63921	0.51729
1006.71064	0.51746
1004.78208	0.51835
1002.85352	0.52007
1000.92495	0.52239
998.99639	0.52548
997.06782	0.52954
995.13926	0.53395
993.21069	0.53802
991.28213	0.54134
989.35356	0.54348
987.42500	0.54428
985.49644	0.54414
983.56787	0.54373
981.63931	0.54360
979.71074	0.54401
977.78218	0.54511
975.85361	0.54688
973.92505	0.54915
971.99648	0.55184
970.06792	0.55507
968.13936	0.55890
966.21079	0.56313
964.28223	0.56759
962.35366	0.57238
960.42510	0.57745
958.49653	0.58258
956.56797	0.58801
954.63940	0.59394
952.71084	0.60024
950.78228	0.60669
948.85371	0.61291
946.92515	0.61883
944.99658	0.62517
943.06802	0.63215
941.13945	0.63880
939.21089	0.64445
937.28232	0.64971
935.35376	0.65531
933.42520	0.66138
931.49663	0.66762
929.56807	0.67374
927.63950	0.67988
925.71094	0.68616
923.78237	0.69292
921.85381	0.69993
919.92524	0.70651
917.99668	0.71338
916.06812	0.72093
914.13955	0.72858
912.21099	0.73651
910.28242	0.74454
908.35386	0.75209
906.42529	0.76032
904.49673	0.76979
902.56816	0.77885
900.63960	0.78754
898.71104	0.79710
896.78247	0.80685
894.85391	0.81640
892.92534	0.82746
890.99678	0.83997
889.06821	0.85122
887.13965	0.86114
885.21108	0.87133
883.28252	0.88202
881.35396	0.89345
879.42539	0.90588
877.49683	0.91871
875.56826	0.93121
873.63970	0.94256
871.71113	0.95270
869.78257	0.96332
867.85400	0.97502
865.92544	0.98695
863.99687	0.99903
862.06831	1.01142
860.13975	1.02424
858.21118	1.03766
856.28262	1.04984
854.35405	1.05976
852.42549	1.07024
850.49692	1.08183
848.56836	1.09191
846.63979	1.10224
844.71123	1.11619
842.78267	1.13105
840.85410	1.14253
838.92554	1.15195
836.99697	1.16176
835.06841	1.17168
833.13984	1.18283
831.21128	1.19533
829.28271	1.20725
827.35415	1.21636
825.42559	1.22106
823.49702	1.22628
821.56846	1.23506
819.63989	1.24172
817.71133	1.24570
815.78276	1.25695
813.85420	1.27921
811.92563	1.30621
809.99707	1.32340
808.06851	1.31481
806.13994	1.29698
804.21138	1.28719
802.28281	1.28399
800.35425	1.29141
798.42568	1.30572
796.49712	1.32136
794.56855	1.33707
792.63999	1.34262
790.71143	1.34903
788.78286	1.36539
786.85430	1.37189
784.92573	1.38488
782.99717	1.41698
781.06860	1.43026
779.14004	1.40266
777.21147	1.37483
775.28291	1.37770
773.35435	1.35248
771.42578	1.29369
769.49722	1.28618
767.56865	1.32120
765.64009	1.30223
763.71152	1.25450
761.78296	1.25140
759.85439	1.27329
757.92583	1.29925
755.99727	1.30863
754.06870	1.25989
752.14014	1.19672
750.21157	1.18133
748.28301	1.19131
746.35444	1.14031
744.42588	1.09127
742.49731	1.16794
740.56875	1.28815
738.64019	1.09642
736.71162	0.85702
734.78306	0.73668
732.85449	0.69022
730.92593	0.62379
728.99736	0.51666
727.06880	0.41309
725.14023	0.34030
723.21167	0.35527
721.28311	0.40949
719.35454	0.32071
717.42598	0.15242
715.49741	0.01437
713.56885	-0.02999
711.64028	-0.00595
709.71172	0.02638
707.78315	0.12143
705.85459	0.16382
703.92603	0.04122
701.99746	-0.06633
700.06890	-0.09972
698.14033	-0.10968
696.21177	-0.06173
694.28320	0.00268
692.35464	0.01912
690.42607	0.03994
688.49751	0.11215
686.56895	0.17857
684.64038	0.21353
682.71182	0.20272
680.78325	0.10003
678.85469	-0.01067
676.92612	-0.04479
674.99756	0.01103
673.06899	0.10400
671.14043	0.11698
669.21187	0.08540
667.28330	0.05951
665.35474	0.00010
663.42617	-0.04851
661.49761	0.02981
659.56904	0.12607
657.64048	0.12081
655.71191	0.08766
653.78335	0.07351
651.85479	0.08210
649.92622	0.08101
647.99766	0.06983
646.06909	0.11070
644.14053	0.18913
642.21196	0.23309
640.28340	0.20795
638.35483	0.11212
636.42627	0.02229
634.49771	0.00704
632.56914	-0.02697
630.64058	-0.09997
628.71201	-0.07058
626.78345	0.05624
624.85488	0.13199
622.92632	0.11908
620.99775	0.11768
619.06919	0.15422
617.14062	0.11726
615.21206	0.02679
613.28350	-0.00670
611.35493	0.01435
609.42637	0.02338
607.49780	0.00088
605.56924	-0.00106
603.64067	0.06093
601.71211	0.12574
599.78354	0.11601
597.85498	0.11334
595.92642	0.14361
593.99785	0.12710
592.06929	0.09371
590.14072	0.12884
588.21216	0.17347
586.28359	0.15031
584.35503	0.05036
582.42646	-0.01780
580.49790	-0.00798
578.56934	0.00650
576.64077	0.00466
574.71221	0.02233
572.78364	0.07113
570.85508	0.15933
568.92651	0.25014
566.99795	0.27366
565.06938	0.20787
563.14082	0.12082
561.21226	0.10608
559.28369	0.09999
557.35513	0.05864
555.42656	0.04344
553.49800	0.05520
551.56943	0.04090
549.64087	0.01186
547.71230	0.02432
545.78374	0.08051
543.85518	0.13674
541.92661	0.14386
539.99805	0.14532
538.06948	0.18643
536.14092	0.20515
534.21235	0.17899
532.28379	0.14620
530.35522	0.13363
528.42666	0.12518
526.49810	0.09798
524.56953	0.07897
522.64097	0.08023
520.71240	0.05631
518.78384	0.02444
516.85527	0.03063
514.92671	0.05796
512.99814	0.07154
511.06958	0.05769
509.14102	0.05432
507.21245	0.07884
505.28389	0.08264
503.35532	0.03950
501.42676	-0.01427
499.49819	-0.04304
