3997.91411	0.08640
3995.98555	0.08646
3994.05698	0.08715
3992.12842	0.08784
3990.19985	0.08806
3988.27129	0.08809
3986.34272	0.08817
3984.41416	0.08827
3982.48560	0.08845
3980.55703	0.08901
3978.62847	0.08977
3976.69990	0.09031
3974.77134	0.09032
3972.84277	0.08998
3970.91421	0.09011
3968.98564	0.09062
3967.05708	0.09065
3965.12852	0.09025
3963.19995	0.09018
3961.27139	0.09058
3959.34282	0.09104
3957.41426	0.09129
3955.48569	0.09143
3953.55713	0.09151
3951.62856	0.09140
3949.70000	0.09123
3947.77144	0.09127
3945.84287	0.09135
3943.91431	0.09138
3941.98574	0.09128
3940.05718	0.09088
3938.12861	0.09074
3936.20005	0.09088
3934.27148	0.09073
3932.34292	0.09056
3930.41436	0.09077
3928.48579	0.09093
3926.55723	0.09083
3924.62866	0.09071
3922.70010	0.09059
3920.77153	0.09053
3918.84297	0.09047
3916.91440	0.09015
3914.98584	0.08965
3913.05728	0.08926
3911.12871	0.08920
3909.20015	0.08954
3907.27158	0.09004
3905.34302	0.09058
3903.41445	0.09116
3901.48589	0.09155
3899.55732	0.09183
3897.62876	0.09149
3895.70020	0.09035
3893.77163	0.08936
3891.84307	0.08933
3889.91450	0.08985
3887.98594	0.08974
3886.05737	0.08990
3884.12881	0.09075
3882.20024	0.09064
3880.27168	0.09000
3878.34312	0.08985
3876.41455	0.08976
3874.48599	0.09018
3872.55742	0.09153
3870.62886	0.09292
3868.70029	0.09348
3866.77173	0.09281
3864.84316	0.09210
3862.91460	0.09230
3860.98604	0.09277
3859.05747	0.09303
3857.12891	0.09334
3855.20034	0.09407
3853.27178	0.09618
3851.34321	0.09835
3849.41465	0.09732
3847.48608	0.09536
3845.55752	0.09424
3843.62896	0.09437
3841.70039	0.09549
3839.77183	0.09707
3837.84326	0.09925
3835.91470	0.10104
3833.98613	0.10120
3832.05757	0.10083
3830.12900	0.10071
3828.20044	0.10073
3826.27187	0.10143
3824.34331	0.10285
3822.41475	0.10438
3820.48618	0.10638
3818.55762	0.10776
3816.62905	0.10812
3814.70049	0.10862
3812.77192	0.10887
3810.84336	0.10887
3808.91479	0.10906
3806.98623	0.10988
3805.05767	0.11120
3803.12910	0.11249
3801.20054	0.11484
3799.27197	0.11725
3797.34341	0.11786
3795.41484	0.11848
3793.48628	0.11935
3791.55771	0.11999
3789.62915	0.12091
3787.70059	0.12221
3785.77202	0.12371
3783.84346	0.12536
3781.91489	0.12691
3779.98633	0.12879
3778.05776	0.13114
3776.12920	0.13253
3774.20063	0.13325
3772.27207	0.13449
3770.34351	0.13630
3768.41494	0.13823
3766.48638	0.14004
3764.55781	0.14216
3762.62925	0.14415
3760.70068	0.14610
3758.77212	0.14882
3756.84355	0.15152
3754.91499	0.15335
3752.98643	0.15530
3751.05786	0.15865
3749.12930	0.16300
3747.20073	0.16566
3745.27217	0.16793
3743.34360	0.17239
3741.41504	0.17651
3739.48647	0.17862
3737.55791	0.18125
3735.62935	0.18650
3733.70078	0.19329
3731.77222	0.19815
3729.84365	0.20177
3727.91509	0.20552
3725.98652	0.21063
3724.05796	0.21726
3722.12939	0.22409
3720.20083	0.23105
3718.27227	0.23826
3716.34370	0.24564
3714.41514	0.25301
3712.48657	0.26178
3710.55801	0.27464
3708.62944	0.28931
3706.70088	0.30159
3704.77231	0.31272
3702.84375	0.32549
3700.91519	0.34267
3698.98662	0.36156
3697.05806	0.37874
3695.12949	0.39679
3693.20093	0.41644
3691.27236	0.43779
3689.34380	0.46548
3687.41523	0.50060
3685.48667	0.53182
3683.55811	0.55833
3681.62954	0.58648
3679.70098	0.61807
3677.77241	0.65113
3675.84385	0.69066
3673.91528	0.74461
3671.98672	0.78817
3670.05815	0.82623
3668.12959	0.87947
3666.20103	0.92911
3664.27246	0.97063
3662.34390	1.01431
3660.41533	1.06091
3658.48677	1.10677
3656.55820	1.15582
3654.62964	1.21068
3652.70107	1.25651
3650.77251	1.29608
3648.84395	1.35170
3646.91538	1.42143
3644.98682	1.47245
3643.05825	1.51098
3641.12969	1.55044
3639.20112	1.59428
3637.27256	1.63847
3635.34399	1.68118
3633.41543	1.72394
3631.48687	1.76445
3629.55830	1.80504
3627.62974	1.85798
3625.70117	1.90970
3623.77261	1.94551
3621.84404	1.97859
3619.91548	2.01673
3617.98691	2.06329
3616.05835	2.10640
3614.12979	2.14169
3612.20122	2.18132
3610.27266	2.22310
3608.34409	2.26408
3606.41553	2.30572
3604.48696	2.34379
3602.55840	2.37822
3600.62983	2.41643
3598.70127	2.45837
3596.77271	2.49796
3594.84414	2.53760
3592.91558	2.58011
3590.98701	2.62028
3589.05845	2.65717
3587.12988	2.70189
3585.20132	2.75152
3583.27275	2.79291
3581.34419	2.83034
3579.41562	2.87048
3577.48706	2.91445
3575.55850	2.95948
3573.62993	3.00377
3571.70137	3.04515
3569.77280	3.08353
3567.84424	3.12445
3565.91567	3.17684
3563.98711	3.22920
3562.05854	3.27113
3560.12998	3.31200
3558.20142	3.35662
3556.27285	3.40241
3554.34429	3.44696
3552.41572	3.49442
3550.48716	3.54174
3548.55859	3.58362
3546.63003	3.62600
3544.70146	3.67640
3542.77290	3.73061
3540.84434	3.78130
3538.91577	3.82972
3536.98721	3.87766
3535.05864	3.92684
3533.13008	3.97451
3531.20151	4.01737
3529.27295	4.05951
3527.34438	4.10647
3525.41582	4.15619
3523.48726	4.20774
3521.55869	4.26194
3519.63013	4.31142
3517.70156	4.35415
3515.77300	4.39839
3513.84443	4.44882
3511.91587	4.49890
3509.98730	4.54942
3508.05874	4.60267
3506.13018	4.64930
3504.20161	4.69324
3502.27305	4.74190
3500.34448	4.78942
3498.41592	4.83769
3496.48735	4.88928
3494.55879	4.93673
3492.63022	4.98517
3490.70166	5.04037
3488.77310	5.09287
3486.84453	5.13787
3484.91597	5.18296
3482.98740	5.23657
3481.05884	5.29217
3479.13027	5.33617
3477.20171	5.37648
3475.27314	5.42373
3473.34458	5.47276
3471.41602	5.51939
3469.48745	5.56644
3467.55889	5.61531
3465.63032	5.66621
3463.70176	5.72336
3461.77319	5.77976
3459.84463	5.82831
3457.91606	5.88225
3455.98750	5.94374
3454.05894	5.98713
3452.13037	6.01168
3450.20181	6.04518
3448.27324	6.09542
3446.34468	6.15321
3444.41611	6.20933
3442.48755	6.26726
3440.55898	6.31976
3438.63042	6.36124
3436.70186	6.40021
3434.77329	6.44129
3432.84473	6.48524
3430.91616	6.53272
3428.98760	6.58353
3427.05903	6.63942
3425.13047	6.71356
3423.20190	6.77368
3421.27334	6.80203
3419.34478	6.83822
3417.41621	6.91363
3415.48765	7.01148
3413.55908	7.07720
3411.63052	7.11852
3409.70195	7.16607
3407.77339	7.22045
3405.84482	7.24990
3403.91626	7.23838
3401.98770	7.22761
3400.05913	7.26241
3398.13057	7.34182
3396.20200	7.41383
3394.27344	7.43969
3392.34487	7.43961
3390.41631	7.45778
3388.48774	7.48911
3386.55918	7.52343
3384.63062	7.56133
3382.70205	7.61174
3380.77349	7.66457
3378.84492	7.71340
3376.91636	7.76940
3374.98779	7.82079
3373.05923	7.89438
3371.13066	7.92846
3369.20210	7.88635
3367.27354	7.83373
3365.34497	7.77802
3363.41641	7.74070
3361.48784	7.79027
3359.55928	7.91286
3357.63071	8.01207
3355.70215	8.05754
3353.77358	8.02562
3351.84502	7.94358
3349.91646	7.89313
3347.98789	7.95870
3346.05933	8.13792
3344.13076	8.25507
3342.20220	8.22354
3340.27363	8.14682
3338.34507	8.07033
3336.41650	8.02384
3334.48794	8.10251
3332.55937	8.19040
3330.63081	8.14698
3328.70225	8.12638
3326.77368	8.22297
3324.84512	8.36425
3322.91655	8.45816
3320.98799	8.41348
3319.05942	8.22943
3317.13086	8.06662
3315.20229	8.02053
3313.27373	8.11516
3311.34517	8.22951
3309.41660	8.23352
3307.48804	8.22111
3305.55947	8.24298
3303.63091	8.29554
3301.70234	8.35607
3299.77378	8.34080
3297.84521	8.29747
3295.91665	8.40603
3293.98809	8.57697
3292.05952	8.54625
3290.13096	8.34620
3288.20239	8.17158
3286.27383	8.12666
3284.34526	8.15011
3282.41670	8.13170
3280.48813	8.11289
3278.55957	8.29783
3276.63101	8.63485
3274.70244	8.70775
3272.77388	8.50407
3270.84531	8.33095
3268.91675	8.28507
3266.98818	8.35340
3265.05962	8.47496
3263.13105	8.47707
3261.20249	8.38960
3259.27393	8.38606
3257.34536	8.39344
3255.41680	8.29346
3253.48823	8.22206
3251.55967	8.28423
3249.63110	8.33619
3247.70254	8.30467
3245.77397	8.21062
3243.84541	8.06201
3241.91685	8.02547
3239.98828	8.16763
3238.05972	8.33495
3236.13115	8.46941
3234.20259	8.54292
3232.27402	8.42542
3230.34546	8.29919
3228.41689	8.33777
3226.48833	8.39630
3224.55977	8.28317
3222.63120	8.12327
3220.70264	8.09593
3218.77407	8.14129
3216.84551	8.12843
3214.91694	8.10215
3212.98838	8.10778
3211.05981	8.04732
3209.13125	7.95495
3207.20269	7.96756
3205.27412	7.99878
3203.34556	7.93276
3201.41699	7.86365
3199.48843	7.81155
3197.55986	7.73455
3195.63130	7.69704
3193.70273	7.72450
3191.77417	7.73284
3189.84561	7.71031
3187.91704	7.72870
3185.98848	7.73625
3184.05991	7.65192
3182.13135	7.56315
3180.20278	7.54029
3178.27422	7.51403
3176.34565	7.44017
3174.41709	7.35143
3172.48853	7.25864
3170.55996	7.17729
3168.63140	7.13676
3166.70283	7.11181
3164.77427	7.05618
3162.84570	6.96652
3160.91714	6.89099
3158.98857	6.86443
3157.06001	6.82749
3155.13145	6.74036
3153.20288	6.65347
3151.27432	6.59414
3149.34575	6.53172
3147.41719	6.44458
3145.48862	6.35688
3143.56006	6.28552
3141.63149	6.22230
3139.70293	6.15275
3137.77437	6.07094
3135.84580	5.98872
3133.91724	5.91800
3131.98867	5.85484
3130.06011	5.79396
3128.13154	5.73073
3126.20298	5.65942
3124.27441	5.58555
3122.34585	5.51029
3120.41729	5.43212
3118.48872	5.35787
3116.56016	5.29277
3114.63159	5.22954
3112.70303	5.15813
3110.77446	5.08487
3108.84590	5.01593
3106.91733	4.94400
3104.98877	4.86668
3103.06021	4.79114
3101.13164	4.71932
3099.20308	4.65049
3097.27451	4.58605
3095.34595	4.52458
3093.41738	4.46236
3091.48882	4.39910
3089.56025	4.33537
3087.63169	4.26728
3085.70312	4.19608
3083.77456	4.12733
3081.84600	4.06264
3079.91743	4.00135
3077.98887	3.94082
3076.06030	3.87903
3074.13174	3.81771
3072.20317	3.75838
3070.27461	3.70063
3068.34604	3.64307
3066.41748	3.58436
3064.48892	3.52650
3062.56035	3.47106
3060.63179	3.41591
3058.70322	3.35955
3056.77466	3.30270
3054.84609	3.24807
3052.91753	3.19682
3050.98896	3.14602
3049.06040	3.09402
3047.13184	3.04250
3045.20327	2.99184
3043.27471	2.94131
3041.34614	2.89124
3039.41758	2.84216
3037.48901	2.79401
3035.56045	2.74579
3033.63188	2.69736
3031.70332	2.65033
3029.77476	2.60535
3027.84619	2.56147
3025.91763	2.51772
3023.98906	2.47385
3022.06050	2.43049
3020.13193	2.38790
3018.20337	2.34589
3016.27480	2.30531
3014.34624	2.26579
3012.41768	2.22575
3010.48911	2.18602
3008.56055	2.14839
3006.63198	2.11214
3004.70342	2.07578
3002.77485	2.03944
3000.84629	2.00377
2998.91772	1.96884
2996.98916	1.93454
2995.06060	1.90067
2993.13203	1.86703
2991.20347	1.83368
2989.27490	1.80104
2987.34634	1.76980
2985.41777	1.74012
2983.48921	1.71058
2981.56064	1.68010
2979.63208	1.64955
2977.70352	1.62016
2975.77495	1.59191
2973.84639	1.56377
2971.91782	1.53552
2969.98926	1.50794
2968.06069	1.48097
2966.13213	1.45419
2964.20356	1.42771
2962.27500	1.40133
2960.34644	1.37532
2958.41787	1.35058
2956.48931	1.32672
2954.56074	1.30260
2952.63218	1.27857
2950.70361	1.25568
2948.77505	1.23393
2946.84648	1.21218
2944.91792	1.18988
2942.98936	1.16750
2941.06079	1.14523
2939.13223	1.12326
2937.20366	1.10193
2935.27510	1.08093
2933.34653	1.06016
2931.41797	1.03954
2929.48940	1.01894
2927.56084	0.99885
2925.63228	0.97956
2923.70371	0.96139
2921.77515	0.94443
2919.84658	0.92841
2917.91802	0.91279
2915.98945	0.89748
2914.06089	0.88319
2912.13232	0.86955
2910.20376	0.85549
2908.27520	0.84123
2906.34663	0.82728
2904.41807	0.81350
2902.48950	0.80003
2900.56094	0.78701
2898.63237	0.77413
2896.70381	0.76156
2894.77524	0.74935
2892.84668	0.73718
2890.91812	0.72529
2888.98955	0.71393
2887.06099	0.70275
2885.13242	0.69154
2883.20386	0.68050
2881.27529	0.66972
2879.34673	0.65895
2877.41816	0.64811
2875.48960	0.63732
2873.56104	0.62662
2871.63247	0.61614
2869.70391	0.60570
2867.77534	0.59500
2865.84678	0.58417
2863.91821	0.57329
2861.98965	0.56244
2860.06108	0.55188
2858.13252	0.54150
2856.20396	0.53130
2854.27539	0.52169
2852.34683	0.51299
2850.41826	0.50519
2848.48970	0.49800
2846.56113	0.49119
2844.63257	0.48469
2842.70400	0.47862
2840.77544	0.47298
2838.84687	0.46742
2836.91831	0.46157
2834.98975	0.45545
2833.06118	0.44944
2831.13262	0.44369
2829.20405	0.43798
2827.27549	0.43213
2825.34692	0.42608
2823.41836	0.42000
2821.48979	0.41402
2819.56123	0.40805
2817.63267	0.40211
2815.70410	0.39650
2813.77554	0.39116
2811.84697	0.38584
2809.91841	0.38053
2807.98984	0.37521
2806.06128	0.36992
2804.13271	0.36472
2802.20415	0.35957
2800.27559	0.35452
2798.34702	0.34969
2796.41846	0.34506
2794.48989	0.34036
2792.56133	0.33561
2790.63276	0.33120
2788.70420	0.32711
2786.77563	0.32298
2784.84707	0.31876
2782.91851	0.31458
2780.98994	0.31044
2779.06138	0.30648
2777.13281	0.30268
2775.20425	0.29881
2773.27568	0.29495
2771.34712	0.29128
2769.41855	0.28774
2767.48999	0.28414
2765.56143	0.28059
2763.63286	0.27729
2761.70430	0.27422
2759.77573	0.27114
2757.84717	0.26799
2755.91860	0.26503
2753.99004	0.26225
2752.06147	0.25934
2750.13291	0.25623
2748.20435	0.25314
2746.27578	0.25019
2744.34722	0.24737
2742.41865	0.24467
2740.49009	0.24208
2738.56152	0.23957
2736.63296	0.23714
2734.70439	0.23488
2732.77583	0.23267
2730.84727	0.23038
2728.91870	0.22807
2726.99014	0.22591
2725.06157	0.22386
2723.13301	0.22176
2721.20444	0.21954
2719.27588	0.21726
2717.34731	0.21508
2715.41875	0.21324
2713.49019	0.21163
2711.56162	0.20993
2709.63306	0.20822
2707.70449	0.20666
2705.77593	0.20510
2703.84736	0.20337
2701.91880	0.20166
2699.99023	0.20013
2698.06167	0.19870
2696.13311	0.19717
2694.20454	0.19554
2692.27598	0.19405
2690.34741	0.19284
2688.41885	0.19173
2686.49028	0.19045
2684.56172	0.18908
2682.63315	0.18788
2680.70459	0.18684
2678.77603	0.18583
2676.84746	0.18481
2674.91890	0.18371
2672.99033	0.18245
2671.06177	0.18123
2669.13320	0.18022
2667.20464	0.17922
2665.27607	0.17816
2663.34751	0.17718
2661.41895	0.17635
2659.49038	0.17566
2657.56182	0.17506
2655.63325	0.17439
2653.70469	0.17362
2651.77612	0.17286
2649.84756	0.17213
2647.91899	0.17149
2645.99043	0.17099
2644.06187	0.17056
2642.13330	0.16998
2640.20474	0.16935
2638.27617	0.16891
2636.34761	0.16856
2634.41904	0.16811
2632.49048	0.16771
2630.56191	0.16742
2628.63335	0.16710
2626.70479	0.16684
2624.77622	0.16667
2622.84766	0.16644
2620.91909	0.16617
2618.99053	0.16587
2617.06196	0.16545
2615.13340	0.16515
2613.20483	0.16513
2611.27627	0.16519
2609.34771	0.16510
2607.41914	0.16492
2605.49058	0.16486
2603.56201	0.16498
2601.63345	0.16508
2599.70488	0.16503
2597.77632	0.16502
2595.84775	0.16516
2593.91919	0.16530
2591.99062	0.16546
2590.06206	0.16566
2588.13350	0.16579
2586.20493	0.16581
2584.27637	0.16589
2582.34780	0.16622
2580.41924	0.16665
2578.49067	0.16696
2576.56211	0.16722
2574.63354	0.16760
2572.70498	0.16806
2570.77642	0.16854
2568.84785	0.16897
2566.91929	0.16937
2564.99072	0.16979
2563.06216	0.17026
2561.13359	0.17076
2559.20503	0.17127
2557.27646	0.17172
2555.34790	0.17209
2553.41934	0.17252
2551.49077	0.17312
2549.56221	0.17374
2547.63364	0.17439
2545.70508	0.17506
2543.77651	0.17577
2541.84795	0.17652
2539.91938	0.17723
2537.99082	0.17782
2536.06226	0.17837
2534.13369	0.17908
2532.20513	0.18000
2530.27656	0.18083
2528.34800	0.18152
2526.41943	0.18229
2524.49087	0.18309
2522.56230	0.18377
2520.63374	0.18446
2518.70518	0.18525
2516.77661	0.18609
2514.84805	0.18702
2512.91948	0.18790
2510.99092	0.18860
2509.06235	0.18923
2507.13379	0.19002
2505.20522	0.19099
2503.27666	0.19209
2501.34810	0.19311
2499.41953	0.19387
2497.49097	0.19454
2495.56240	0.19536
2493.63384	0.19629
2491.70527	0.19723
2489.77671	0.19814
2487.84814	0.19903
2485.91958	0.19997
2483.99102	0.20086
2482.06245	0.20169
2480.13389	0.20255
2478.20532	0.20348
2476.27676	0.20440
2474.34819	0.20526
2472.41963	0.20615
2470.49106	0.20722
2468.56250	0.20827
2466.63394	0.20918
2464.70537	0.21018
2462.77681	0.21130
2460.84824	0.21240
2458.91968	0.21339
2456.99111	0.21426
2455.06255	0.21514
2453.13398	0.21615
2451.20542	0.21714
2449.27686	0.21813
2447.34829	0.21919
2445.41973	0.22018
2443.49116	0.22107
2441.56260	0.22202
2439.63403	0.22304
2437.70547	0.22410
2435.77690	0.22523
2433.84834	0.22638
2431.91978	0.22751
2429.99121	0.22864
2428.06265	0.22969
2426.13408	0.23076
2424.20552	0.23193
2422.27695	0.23314
2420.34839	0.23429
2418.41982	0.23540
2416.49126	0.23658
2414.56270	0.23785
2412.63413	0.23911
2410.70557	0.24025
2408.77700	0.24130
2406.84844	0.24238
2404.91987	0.24360
2402.99131	0.24488
2401.06274	0.24615
2399.13418	0.24744
2397.20562	0.24873
2395.27705	0.25003
2393.34849	0.25135
2391.41992	0.25263
2389.49136	0.25391
2387.56279	0.25524
2385.63423	0.25659
2383.70566	0.25796
2381.77710	0.25935
2379.84854	0.26091
2377.91997	0.26285
2375.99141	0.26490
2374.06284	0.26661
2372.13428	0.26828
2370.20571	0.27082
2368.27715	0.27417
2366.34858	0.27735
2364.42002	0.27971
2362.49146	0.28153
2360.56289	0.28285
2358.63433	0.28372
2356.70576	0.28526
2354.77720	0.28718
2352.84863	0.28817
2350.92007	0.28815
2348.99150	0.28807
2347.06294	0.28857
2345.13437	0.29029
2343.20581	0.29320
2341.27725	0.29554
2339.34868	0.29684
2337.42012	0.29826
2335.49155	0.30005
2333.56299	0.30185
2331.63442	0.30373
2329.70586	0.30566
2327.77729	0.30734
2325.84873	0.30860
2323.92017	0.30977
2321.99160	0.31118
2320.06304	0.31265
2318.13447	0.31404
2316.20591	0.31535
2314.27734	0.31669
2312.34878	0.31824
2310.42021	0.32000
2308.49165	0.32171
2306.56309	0.32333
2304.63452	0.32504
2302.70596	0.32674
2300.77739	0.32849
2298.84883	0.33036
2296.92026	0.33219
2294.99170	0.33398
2293.06313	0.33588
2291.13457	0.33778
2289.20601	0.33964
2287.27744	0.34154
2285.34888	0.34347
2283.42031	0.34530
2281.49175	0.34709
2279.56318	0.34902
2277.63462	0.35111
2275.70605	0.35332
2273.77749	0.35554
2271.84893	0.35761
2269.92036	0.35955
2267.99180	0.36155
2266.06323	0.36372
2264.13467	0.36600
2262.20610	0.36832
2260.27754	0.37056
2258.34897	0.37268
2256.42041	0.37475
2254.49185	0.37693
2252.56328	0.37922
2250.63472	0.38146
2248.70615	0.38361
2246.77759	0.38580
2244.84902	0.38802
2242.92046	0.39033
2240.99189	0.39273
2239.06333	0.39507
2237.13477	0.39727
2235.20620	0.39948
2233.27764	0.40177
2231.34907	0.40405
2229.42051	0.40631
2227.49194	0.40859
2225.56338	0.41088
2223.63481	0.41321
2221.70625	0.41555
2219.77769	0.41780
2217.84912	0.41997
2215.92056	0.42216
2213.99199	0.42429
2212.06343	0.42636
2210.13486	0.42849
2208.20630	0.43066
2206.27773	0.43272
2204.34917	0.43471
2202.42061	0.43677
2200.49204	0.43894
2198.56348	0.44122
2196.63491	0.44344
2194.70635	0.44540
2192.77778	0.44719
2190.84922	0.44909
2188.92065	0.45108
2186.99209	0.45294
2185.06353	0.45465
2183.13496	0.45636
2181.20640	0.45819
2179.27783	0.46003
2177.34927	0.46176
2175.42070	0.46340
2173.49214	0.46496
2171.56357	0.46637
2169.63501	0.46763
2167.70645	0.46881
2165.77788	0.47003
2163.84932	0.47127
2161.92075	0.47249
2159.99219	0.47371
2158.06362	0.47485
2156.13506	0.47585
2154.20649	0.47678
2152.27793	0.47768
2150.34937	0.47842
2148.42080	0.47899
2146.49224	0.47951
2144.56367	0.47991
2142.63511	0.48012
2140.70654	0.48028
2138.77798	0.48057
2136.84941	0.48094
2134.92085	0.48110
2132.99229	0.48103
2131.06372	0.48093
2129.13516	0.48071
2127.20659	0.48032
2125.27803	0.47995
2123.34946	0.47960
2121.42090	0.47906
2119.49233	0.47838
2117.56377	0.47770
2115.63521	0.47691
2113.70664	0.47595
2111.77808	0.47497
2109.84951	0.47400
2107.92095	0.47297
2105.99238	0.47182
2104.06382	0.47055
2102.13525	0.46924
2100.20669	0.46799
2098.27812	0.46668
2096.34956	0.46517
2094.42100	0.46343
2092.49243	0.46162
2090.56387	0.45990
2088.63530	0.45817
2086.70674	0.45637
2084.77817	0.45444
2082.84961	0.45239
2080.92104	0.45028
2078.99248	0.44810
2077.06392	0.44588
2075.13535	0.44369
2073.20679	0.44149
2071.27822	0.43923
2069.34966	0.43691
2067.42109	0.43450
2065.49253	0.43205
2063.56396	0.42955
2061.63540	0.42699
2059.70684	0.42439
2057.77827	0.42177
2055.84971	0.41914
2053.92114	0.41647
2051.99258	0.41376
2050.06401	0.41113
2048.13545	0.40856
2046.20688	0.40586
2044.27832	0.40310
2042.34976	0.40037
2040.42119	0.39758
2038.49263	0.39464
2036.56406	0.39172
2034.63550	0.38889
2032.70693	0.38605
2030.77837	0.38322
2028.84980	0.38041
2026.92124	0.37750
2024.99268	0.37452
2023.06411	0.37163
2021.13555	0.36882
2019.20698	0.36598
2017.27842	0.36309
2015.34985	0.36016
2013.42129	0.35734
2011.49272	0.35450
2009.56416	0.35157
2007.63560	0.34869
2005.70703	0.34594
2003.77847	0.34317
2001.84990	0.34037
1999.92134	0.33764
1997.99277	0.33491
1996.06421	0.33220
1994.13564	0.32973
1992.20708	0.32747
1990.27852	0.32504
1988.34995	0.32235
1986.42139	0.31959
1984.49282	0.31697
1982.56426	0.31458
1980.63569	0.31229
1978.70713	0.30991
1976.77856	0.30747
1974.85000	0.30509
1972.92144	0.30278
1970.99287	0.30059
1969.06431	0.29855
1967.13574	0.29651
1965.20718	0.29430
1963.27861	0.29214
1961.35005	0.29023
1959.42148	0.28840
1957.49292	0.28649
1955.56436	0.28462
1953.63579	0.28284
1951.70723	0.28106
1949.77866	0.27927
1947.85010	0.27753
1945.92153	0.27595
1943.99297	0.27452
1942.06440	0.27308
1940.13584	0.27149
1938.20728	0.26990
1936.27871	0.26849
1934.35015	0.26724
1932.42158	0.26605
1930.49302	0.26482
1928.56445	0.26356
1926.63589	0.26230
1924.70732	0.26124
1922.77876	0.26038
1920.85020	0.25945
1918.92163	0.25842
1916.99307	0.25737
1915.06450	0.25637
1913.13594	0.25547
1911.20737	0.25478
1909.27881	0.25423
1907.35024	0.25359
1905.42168	0.25277
1903.49312	0.25202
1901.56455	0.25142
1899.63599	0.25096
1897.70742	0.25059
1895.77886	0.25020
1893.85029	0.24981
1891.92173	0.24945
1889.99316	0.24920
1888.06460	0.24893
1886.13604	0.24864
1884.20747	0.24843
1882.27891	0.24817
1880.35034	0.24793
1878.42178	0.24789
1876.49321	0.24793
1874.56465	0.24784
1872.63608	0.24785
1870.70752	0.24808
1868.77896	0.24852
1866.85039	0.24881
1864.92183	0.24880
1862.99326	0.24884
1861.06470	0.24904
1859.13613	0.24934
1857.20757	0.24962
1855.27900	0.25005
1853.35044	0.25055
1851.42187	0.25108
1849.49331	0.25164
1847.56475	0.25229
1845.63618	0.25310
1843.70762	0.25420
1841.77905	0.25511
1839.85049	0.25550
1837.92192	0.25610
1835.99336	0.25698
1834.06479	0.25786
1832.13623	0.25872
1830.20767	0.26007
1828.27910	0.26169
1826.35054	0.26287
1824.42197	0.26415
1822.49341	0.26548
1820.56484	0.26673
1818.63628	0.26811
1816.70771	0.26974
1814.77915	0.27143
1812.85059	0.27319
1810.92202	0.27516
1808.99346	0.27721
1807.06489	0.27918
1805.13633	0.28108
1803.20776	0.28327
1801.27920	0.28586
1799.35063	0.28882
1797.42207	0.29146
1795.49351	0.29378
1793.56494	0.29649
1791.63638	0.30027
1789.70781	0.30396
1787.77925	0.30661
1785.85068	0.30972
1783.92212	0.31352
1781.99355	0.31751
1780.06499	0.32167
1778.13643	0.32604
1776.20786	0.33017
1774.27930	0.33448
1772.35073	0.34033
1770.42217	0.34688
1768.49360	0.35242
1766.56504	0.35770
1764.63647	0.36296
1762.70791	0.36869
1760.77935	0.37619
1758.85078	0.38335
1756.92222	0.39042
1754.99365	0.39823
1753.06509	0.40538
1751.13652	0.41375
1749.20796	0.42427
1747.27939	0.43471
1745.35083	0.44396
1743.42227	0.45369
1741.49370	0.46433
1739.56514	0.47684
1737.63657	0.48956
1735.70801	0.50081
1733.77944	0.51770
1731.85088	0.53785
1729.92231	0.55363
1727.99375	0.56966
1726.06519	0.58689
1724.13662	0.60571
1722.20806	0.62596
1720.27949	0.64450
1718.35093	0.66624
1716.42236	0.69884
1714.49380	0.73022
1712.56523	0.75565
1710.63667	0.78010
1708.70811	0.80599
1706.77954	0.83527
1704.85098	0.87039
1702.92241	0.90182
1700.99385	0.93271
1699.06528	0.97874
1697.13672	1.02080
1695.20815	1.06357
1693.27959	1.10571
1691.35103	1.13948
1689.42246	1.17780
1687.49390	1.21792
1685.56533	1.25649
1683.63677	1.31606
1681.70820	1.37820
1679.77964	1.41801
1677.85107	1.45617
1675.92251	1.49938
1673.99395	1.55206
1672.06538	1.59855
1670.13682	1.64410
1668.20825	1.70455
1666.27969	1.75353
1664.35112	1.79425
1662.42256	1.84424
1660.49399	1.90050
1658.56543	1.94418
1656.63687	1.97953
1654.70830	2.01171
1652.77974	2.06655
1650.85117	2.12434
1648.92261	2.14588
1646.99404	2.17297
1645.06548	2.20182
1643.13691	2.21984
1641.20835	2.23080
1639.27979	2.24152
1637.35122	2.24791
1635.42266	2.24861
1633.49409	2.24612
1631.56553	2.23720
1629.63696	2.22259
1627.70840	2.19541
1625.77983	2.16434
1623.85127	2.12585
1621.92271	2.07916
1619.99414	2.03887
1618.06558	1.99962
1616.13701	1.94004
1614.20845	1.87710
1612.27988	1.83012
1610.35132	1.78233
1608.42275	1.73013
1606.49419	1.67758
1604.56562	1.62849
1602.63706	1.58041
1600.70850	1.53356
1598.77993	1.49099
1596.85137	1.45104
1594.92280	1.41227
1592.99424	1.37445
1591.06567	1.33920
1589.13711	1.30587
1587.20854	1.27467
1585.27998	1.24569
1583.35142	1.21851
1581.42285	1.19345
1579.49429	1.17188
1577.56572	1.15228
1575.63716	1.12763
1573.70859	1.10541
1571.78003	1.09080
1569.85146	1.07523
1567.92290	1.05725
1565.99434	1.04289
1564.06577	1.03086
1562.13721	1.02081
1560.20864	1.01264
1558.28008	1.00060
1556.35151	0.98993
1554.42295	0.98285
1552.49438	0.97568
1550.56582	0.96819
1548.63726	0.95996
1546.70869	0.95197
1544.78013	0.94333
1542.85156	0.93282
1540.92300	0.91947
1538.99443	0.90150
1537.06587	0.88877
1535.13730	0.88002
1533.20874	0.86844
1531.28018	0.85571
1529.35161	0.84613
1527.42305	0.83716
1525.49448	0.82806
1523.56592	0.82019
1521.63735	0.81216
1519.70879	0.80367
1517.78022	0.79687
1515.85166	0.78955
1513.92310	0.78183
1511.99453	0.77515
1510.06597	0.76918
1508.13740	0.76345
1506.20884	0.75490
1504.28027	0.74691
1502.35171	0.74188
1500.42314	0.73750
1498.49458	0.73294
1496.56602	0.72784
1494.63745	0.72290
1492.70889	0.71890
1490.78032	0.71538
1488.85176	0.71140
1486.92319	0.70728
1484.99463	0.70357
1483.06606	0.70040
1481.13750	0.69773
1479.20894	0.69559
1477.28037	0.69386
1475.35181	0.69222
1473.42324	0.69052
1471.49468	0.68826
1469.56611	0.68551
1467.63755	0.68293
1465.70898	0.68069
1463.78042	0.67863
1461.85186	0.67689
1459.92329	0.67563
1457.99473	0.67456
1456.06616	0.67274
1454.13760	0.67018
1452.20903	0.66786
1450.28047	0.66568
1448.35190	0.66345
1446.42334	0.66101
1444.49478	0.65886
1442.56621	0.65720
1440.63765	0.65552
1438.70908	0.65361
1436.78052	0.65149
1434.85195	0.64917
1432.92339	0.64695
1430.99482	0.64530
1429.06626	0.64424
1427.13770	0.64337
1425.20913	0.64260
1423.28057	0.64197
1421.35200	0.64136
1419.42344	0.64092
1417.49487	0.64038
1415.56631	0.63910
1413.63774	0.63761
1411.70918	0.63621
1409.78062	0.63505
1407.85205	0.63420
1405.92349	0.63357
1403.99492	0.63291
1402.06636	0.63197
1400.13779	0.63082
1398.20923	0.62940
1396.28066	0.62760
1394.35210	0.62533
1392.42354	0.62279
1390.49497	0.62040
1388.56641	0.61814
1386.63784	0.61579
1384.70928	0.61336
1382.78071	0.61090
1380.85215	0.60855
1378.92358	0.60656
1376.99502	0.60493
1375.06646	0.60372
1373.13789	0.60283
1371.20933	0.60197
1369.28076	0.60114
1367.35220	0.60024
1365.42363	0.59918
1363.49507	0.59814
1361.56650	0.59703
1359.63794	0.59573
1357.70937	0.59448
1355.78081	0.59335
1353.85225	0.59233
1351.92368	0.59143
1349.99512	0.59055
1348.06655	0.58970
1346.13799	0.58881
1344.20942	0.58776
1342.28086	0.58670
1340.35229	0.58578
1338.42373	0.58484
1336.49517	0.58376
1334.56660	0.58285
1332.63804	0.58222
1330.70947	0.58169
1328.78091	0.58127
1326.85234	0.58102
1324.92378	0.58080
1322.99521	0.58055
1321.06665	0.58035
1319.13809	0.58017
1317.20952	0.57968
1315.28096	0.57888
1313.35239	0.57820
1311.42383	0.57759
1309.49526	0.57675
1307.56670	0.57576
1305.63813	0.57484
1303.70957	0.57393
1301.78101	0.57297
1299.85244	0.57202
1297.92388	0.57101
1295.99531	0.56987
1294.06675	0.56879
1292.13818	0.56772
1290.20962	0.56657
1288.28105	0.56553
1286.35249	0.56475
1284.42393	0.56411
1282.49536	0.56333
1280.56680	0.56244
1278.63823	0.56159
1276.70967	0.56080
1274.78110	0.56004
1272.85254	0.55940
1270.92397	0.55884
1268.99541	0.55817
1267.06685	0.55751
1265.13828	0.55699
1263.20972	0.55661
1261.28115	0.55621
1259.35259	0.55572
1257.42402	0.55530
1255.49546	0.55501
1253.56689	0.55476
1251.63833	0.55458
1249.70977	0.55453
1247.78120	0.55442
1245.85264	0.55406
1243.92407	0.55349
1241.99551	0.55293
1240.06694	0.55232
1238.13838	0.55135
1236.20981	0.55011
1234.28125	0.54889
1232.35269	0.54772
1230.42412	0.54652
1228.49556	0.54537
1226.56699	0.54430
1224.63843	0.54324
1222.70986	0.54213
1220.78130	0.54110
1218.85273	0.54022
1216.92417	0.53930
1214.99561	0.53831
1213.06704	0.53744
1211.13848	0.53667
1209.20991	0.53602
1207.28135	0.53550
1205.35278	0.53487
1203.42422	0.53405
1201.49565	0.53322
1199.56709	0.53250
1197.63853	0.53189
1195.70996	0.53135
1193.78140	0.53078
1191.85283	0.53021
1189.92427	0.52974
1187.99570	0.52925
1186.06714	0.52879
1184.13857	0.52866
1182.21001	0.52886
1180.28145	0.52918
1178.35288	0.52963
1176.42432	0.53023
1174.49575	0.53094
1172.56719	0.53169
1170.63862	0.53233
1168.71006	0.53287
1166.78149	0.53343
1164.85293	0.53403
1162.92437	0.53453
1160.99580	0.53490
1159.06724	0.53494
1157.13867	0.53440
1155.21011	0.53338
1153.28154	0.53208
1151.35298	0.53050
1149.42441	0.52842
1147.49585	0.52590
1145.56729	0.52338
1143.63872	0.52116
1141.71016	0.51905
1139.78159	0.51686
1137.85303	0.51485
1135.92446	0.51330
1133.99590	0.51202
1132.06733	0.51091
1130.13877	0.51018
1128.21021	0.50971
1126.28164	0.50912
1124.35308	0.50831
1122.42451	0.50753
1120.49595	0.50692
1118.56738	0.50653
1116.63882	0.50645
1114.71025	0.50667
1112.78169	0.50711
1110.85312	0.50769
1108.92456	0.50847
1106.99600	0.50950
1105.06743	0.51067
1103.13887	0.51186
1101.21030	0.51292
1099.28174	0.51412
1097.35317	0.51608
1095.42461	0.51900
1093.49604	0.52281
1091.56748	0.52745
1089.63892	0.53301
1087.71035	0.53966
1085.78179	0.54711
1083.85322	0.55479
1081.92466	0.56184
1079.99609	0.56723
1078.06753	0.57047
1076.13896	0.57115
1074.21040	0.56890
1072.28184	0.56431
1070.35327	0.55827
1068.42471	0.55145
1066.49614	0.54456
1064.56758	0.53818
1062.63901	0.53243
1060.71045	0.52746
1058.78188	0.52334
1056.85332	0.51978
1054.92476	0.51651
1052.99619	0.51354
1051.06763	0.51105
1049.13906	0.50919
1047.21050	0.50791
1045.28193	0.50717
1043.35337	0.50687
1041.42480	0.50682
1039.49624	0.50673
1037.56768	0.50646
1035.63911	0.50621
1033.71055	0.50588
1031.78198	0.50514
1029.85342	0.50416
1027.92485	0.50321
1025.99629	0.50244
1024.06772	0.50203
1022.13916	0.50196
1020.21060	0.50219
1018.28203	0.50251
1016.35347	0.50266
1014.42490	0.50281
1012.49634	0.50311
1010.56777	0.50352
1008.63921	0.50417
1006.71064	0.50524
1004.78208	0.50665
1002.85352	0.50856
1000.92495	0.51126
998.99639	0.51457
997.06782	0.51824
995.13926	0.52224
993.21069	0.52620
991.28213	0.52951
989.35356	0.53176
987.42500	0.53300
985.49644	0.53377
983.56787	0.53426
981.63931	0.53452
979.71074	0.53515
977.78218	0.53672
975.85361	0.53902
973.92505	0.54159
971.99648	0.54450
970.06792	0.54794
968.13936	0.55178
966.21079	0.55592
964.28223	0.56040
962.35366	0.56513
960.42510	0.57016
958.49653	0.57552
956.56797	0.58104
954.63940	0.58694
952.71084	0.59333
950.78228	0.60000
948.85371	0.60652
946.92515	0.61258
944.99658	0.61852
943.06802	0.62499
941.13945	0.63181
939.21089	0.63805
937.28232	0.64351
935.35376	0.64849
933.42520	0.65349
931.49663	0.65932
929.56807	0.66597
927.63950	0.67266
925.71094	0.67881
923.78237	0.68480
921.85381	0.69126
919.92524	0.69794
917.99668	0.70471
916.06812	0.71200
914.13955	0.71962
912.21099	0.72764
910.28242	0.73660
908.35386	0.74616
906.42529	0.75571
904.49673	0.76478
902.56816	0.77323
900.63960	0.78159
898.71104	0.79022
896.78247	0.79963
894.85391	0.81032
892.92534	0.82163
890.99678	0.83280
889.06821	0.84385
887.13965	0.85408
885.21108	0.86345
883.28252	0.87392
881.35396	0.88654
879.42539	0.89966
877.49683	0.91167
875.56826	0.92338
873.63970	0.93488
871.71113	0.94597
869.78257	0.95754
867.85400	0.96909
865.92544	0.98019
863.99687	0.99094
862.06831	1.00183
860.13975	1.01411
858.21118	1.02681
856.28262	1.03808
854.35405	1.04827
852.42549	1.05878
850.49692	1.07120
848.56836	1.08383
846.63979	1.09520
844.71123	1.10906
842.78267	1.12452
840.85410	1.13639
838.92554	1.14468
836.99697	1.15294
835.06841	1.16344
833.13984	1.17573
831.21128	1.18866
829.28271	1.20284
827.35415	1.22091
825.42559	1.24084
823.49702	1.25359
821.56846	1.25568
819.63989	1.25491
817.71133	1.25927
815.78276	1.26490
813.85420	1.26962
811.92563	1.28343
809.99707	1.30104
808.06851	1.31431
806.13994	1.33056
804.21138	1.33495
802.28281	1.31624
800.35425	1.30528
798.42568	1.32847
796.49712	1.36844
794.56855	1.38620
792.63999	1.36671
790.71143	1.33739
788.78286	1.34153
786.85430	1.38803
784.92573	1.47768
782.99717	1.59602
781.06860	1.58521
779.14004	1.42958
777.21147	1.34662
775.28291	1.37819
773.35435	1.46426
771.42578	1.47984
769.49722	1.40367
767.56865	1.39163
765.64009	1.42958
763.71152	1.42306
761.78296	1.46374
759.85439	1.63613
757.92583	1.70995
755.99727	1.42369
754.06870	1.24636
752.14014	1.21110
750.21157	1.31060
748.28301	1.88692
746.35444	4.47813
744.42588	4.46656
742.49731	4.45498
740.56875	1.80366
738.64019	1.51686
736.71162	1.47516
734.78306	2.01702
732.85449	1.40424
730.92593	0.98229
728.99736	0.77741
727.06880	0.58435
725.14023	0.51038
723.21167	0.65410
721.28311	1.09557
719.35454	4.31613
717.42598	4.30456
715.49741	4.29298
713.56885	0.85516
711.64028	0.42022
709.71172	0.13560
707.78315	0.05226
705.85459	0.10120
703.92603	0.10400
701.99746	0.03819
700.06890	0.03937
698.14033	0.07573
696.21177	0.10689
694.28320	0.09676
692.35464	0.10438
690.42607	0.15023
688.49751	0.18592
686.56895	0.21779
684.64038	0.24708
682.71182	0.21143
680.78325	0.15320
678.85469	0.16420
676.92612	0.28191
674.99756	0.38934
673.06899	0.27235
671.14043	0.22049
669.21187	0.27854
667.28330	0.29198
665.35474	0.24797
663.42617	0.28170
661.49761	0.35080
659.56904	0.26343
657.64048	0.13570
655.71191	0.12499
653.78335	0.28284
651.85479	0.32067
649.92622	0.16946
647.99766	0.12159
646.06909	0.16181
644.14053	0.17320
642.21196	0.19358
640.28340	0.25507
638.35483	0.30166
636.42627	0.22726
634.49771	0.12592
632.56914	0.11542
630.64058	0.07280
628.71201	-0.00156
626.78345	0.03653
624.85488	0.11384
622.92632	0.14367
620.99775	0.14518
619.06919	0.16916
617.14062	0.19246
615.21206	0.16627
613.28350	0.09149
611.35493	0.04368
609.42637	0.08997
607.49780	0.19563
605.56924	0.21679
603.64067	0.08639
601.71211	0.00034
599.78354	0.02353
597.85498	0.06168
595.92642	0.10426
593.99785	0.16182
592.06929	0.26452
590.14072	0.49597
588.21216	0.70348
586.28359	0.41826
584.35503	0.28650
582.42646	0.18548
580.49790	0.10413
578.56934	0.11505
576.64077	0.20238
574.71221	0.30541
572.78364	0.33738
570.85508	0.29634
568.92651	0.29282
566.99795	0.27463
565.06938	0.18674
563.14082	0.16342
561.21226	0.28775
559.28369	0.41732
557.35513	0.29237
555.42656	0.23258
553.49800	0.27210
551.56943	0.31414
549.64087	0.32500
547.71230	0.30452
545.78374	0.20606
543.85518	0.09630
541.92661	0.11184
539.99805	0.33810
538.06948	0.58796
536.14092	0.27289
534.21235	0.12456
532.28379	0.15345
530.35522	0.26176
528.42666	0.30874
526.49810	0.27322
524.56953	0.26297
522.64097	0.29829
520.71240	0.31489
518.78384	0.28886
516.85527	0.26963
514.92671	0.20945
512.99814	0.19948
511.06958	0.26518
509.14102	0.41529
507.21245	0.96578
505.28389	0.59592
503.35532	0.37059
501.42676	0.32302
499.49819	0.30070
