3997.91411	0.07823
3995.98555	0.07828
3994.05698	0.07847
3992.12842	0.07888
3990.19985	0.07959
3988.27129	0.08026
3986.34272	0.08059
3984.41416	0.08093
3982.48560	0.08116
3980.55703	0.08080
3978.62847	0.08039
3976.69990	0.08078
3974.77134	0.08159
3972.84277	0.08199
3970.91421	0.08201
3968.98564	0.08211
3967.05708	0.08227
3965.12852	0.08238
3963.19995	0.08267
3961.27139	0.08298
3959.34282	0.08289
3957.41426	0.08260
3955.48569	0.08260
3953.55713	0.08301
3951.62856	0.08350
3949.70000	0.08372
3947.77144	0.08380
3945.84287	0.08377
3943.91431	0.08366
3941.98574	0.08378
3940.05718	0.08382
3938.12861	0.08332
3936.20005	0.08285
3934.27148	0.08314
3932.34292	0.08382
3930.41436	0.08391
3928.48579	0.08334
3926.55723	0.08288
3924.62866	0.08294
3922.70010	0.08306
3920.77153	0.08273
3918.84297	0.08242
3916.91440	0.08259
3914.98584	0.08254
3913.05728	0.08175
3911.12871	0.08108
3909.20015	0.08116
3907.27158	0.08181
3905.34302	0.08268
3903.41445	0.08349
3901.48589	0.08388
3899.55732	0.08374
3897.62876	0.08308
3895.70020	0.08235
3893.77163	0.08227
3891.84307	0.08283
3889.91450	0.08278
3887.98594	0.08191
3886.05737	0.08202
3884.12881	0.08293
3882.20024	0.08323
3880.27168	0.08356
3878.34312	0.08375
3876.41455	0.08347
3874.48599	0.08374
3872.55742	0.08425
3870.62886	0.08465
3868.70029	0.08531
3866.77173	0.08546
3864.84316	0.08529
3862.91460	0.08535
3860.98604	0.08519
3859.05747	0.08497
3857.12891	0.08516
3855.20034	0.08611
3853.27178	0.08840
3851.34321	0.09021
3849.41465	0.08936
3847.48608	0.08829
3845.55752	0.08801
3843.62896	0.08861
3841.70039	0.08981
3839.77183	0.09109
3837.84326	0.09227
3835.91470	0.09299
3833.98613	0.09346
3832.05757	0.09381
3830.12900	0.09385
3828.20044	0.09389
3826.27187	0.09434
3824.34331	0.09525
3822.41475	0.09670
3820.48618	0.09885
3818.55762	0.10018
3816.62905	0.10025
3814.70049	0.10017
3812.77192	0.10006
3810.84336	0.10018
3808.91479	0.10104
3806.98623	0.10276
3805.05767	0.10428
3803.12910	0.10541
3801.20054	0.10764
3799.27197	0.10984
3797.34341	0.11050
3795.41484	0.11083
3793.48628	0.11098
3791.55771	0.11128
3789.62915	0.11220
3787.70059	0.11339
3785.77202	0.11481
3783.84346	0.11653
3781.91489	0.11804
3779.98633	0.11966
3778.05776	0.12173
3776.12920	0.12306
3774.20063	0.12384
3772.27207	0.12528
3770.34351	0.12775
3768.41494	0.13056
3766.48638	0.13260
3764.55781	0.13424
3762.62925	0.13584
3760.70068	0.13780
3758.77212	0.14088
3756.84355	0.14404
3754.91499	0.14614
3752.98643	0.14845
3751.05786	0.15234
3749.12930	0.15672
3747.20073	0.15900
3745.27217	0.16096
3743.34360	0.16445
3741.41504	0.16751
3739.48647	0.16951
3737.55791	0.17241
3735.62935	0.17803
3733.70078	0.18558
3731.77222	0.19059
3729.84365	0.19341
3727.91509	0.19678
3725.98652	0.20182
3724.05796	0.20834
3722.12939	0.21581
3720.20083	0.22356
3718.27227	0.23039
3716.34370	0.23678
3714.41514	0.24377
3712.48657	0.25312
3710.55801	0.26707
3708.62944	0.28186
3706.70088	0.29317
3704.77231	0.30374
3702.84375	0.31676
3700.91519	0.33406
3698.98662	0.35268
3697.05806	0.37006
3695.12949	0.38836
3693.20093	0.40769
3691.27236	0.42907
3689.34380	0.45736
3687.41523	0.49229
3685.48667	0.52300
3683.55811	0.54927
3681.62954	0.57727
3679.70098	0.60895
3677.77241	0.64232
3675.84385	0.68197
3673.91528	0.73524
3671.98672	0.77853
3670.05815	0.81692
3668.12959	0.86980
3666.20103	0.91829
3664.27246	0.95885
3662.34390	1.00227
3660.41533	1.04933
3658.48677	1.09594
3656.55820	1.14538
3654.62964	1.20005
3652.70107	1.24628
3650.77251	1.28716
3648.84395	1.34341
3646.91538	1.41180
3644.98682	1.46184
3643.05825	1.50025
3641.12969	1.53992
3639.20112	1.58382
3637.27256	1.62779
3635.34399	1.67088
3633.41543	1.71434
3631.48687	1.75439
3629.55830	1.79462
3627.62974	1.84834
3625.70117	1.89900
3623.77261	1.93374
3621.84404	1.96759
3619.91548	2.00660
3617.98691	2.05315
3616.05835	2.09700
3614.12979	2.13286
3612.20122	2.17068
3610.27266	2.20958
3608.34409	2.24910
3606.41553	2.29186
3604.48696	2.33182
3602.55840	2.36695
3600.62983	2.40533
3598.70127	2.44777
3596.77271	2.48860
3594.84414	2.52873
3592.91558	2.57034
3590.98701	2.60980
3589.05845	2.64558
3587.12988	2.68803
3585.20132	2.73644
3583.27275	2.77858
3581.34419	2.81643
3579.41562	2.85602
3577.48706	2.89934
3575.55850	2.94481
3573.62993	2.99028
3571.70137	3.03228
3569.77280	3.07184
3567.84424	3.11523
3565.91567	3.16964
3563.98711	3.22231
3562.05854	3.26405
3560.12998	3.30513
3558.20142	3.34912
3556.27285	3.39272
3554.34429	3.43416
3552.41572	3.47856
3550.48716	3.52720
3548.55859	3.57465
3546.63003	3.61944
3544.70146	3.66758
3542.77290	3.72017
3540.84434	3.77009
3538.91577	3.81411
3536.98721	3.85584
3535.05864	3.90302
3533.13008	3.95479
3531.20151	4.00653
3529.27295	4.05585
3527.34438	4.10244
3525.41582	4.14907
3523.48726	4.19776
3521.55869	4.24737
3519.63013	4.29474
3517.70156	4.33899
3515.77300	4.38188
3513.84443	4.42851
3511.91587	4.47905
3509.98730	4.53083
3508.05874	4.58310
3506.13018	4.63320
3504.20161	4.67958
3502.27305	4.72614
3500.34448	4.77703
3498.41592	4.82845
3496.48735	4.87942
3494.55879	4.93229
3492.63022	4.98521
3490.70166	5.03510
3488.77310	5.07911
3486.84453	5.11961
3484.91597	5.16163
3482.98740	5.20210
3481.05884	5.24385
3479.13027	5.29456
3477.20171	5.35428
3475.27314	5.41603
3473.34458	5.46821
3471.41602	5.51413
3469.48745	5.55953
3467.55889	5.60163
3465.63032	5.64549
3463.70176	5.69068
3461.77319	5.73616
3459.84463	5.79209
3457.91606	5.84982
3455.98750	5.89705
3454.05894	5.94679
3452.13037	6.00636
3450.20181	6.06080
3448.27324	6.10563
3446.34468	6.15870
3444.41611	6.21760
3442.48755	6.26239
3440.55898	6.29919
3438.63042	6.35073
3436.70186	6.41163
3434.77329	6.46467
3432.84473	6.49914
3430.91616	6.52728
3428.98760	6.58182
3427.05903	6.64322
3425.13047	6.69236
3423.20190	6.74880
3421.27334	6.81221
3419.34478	6.86200
3417.41621	6.90611
3415.48765	6.93787
3413.55908	6.93771
3411.63052	6.95217
3409.70195	6.99896
3407.77339	7.06655
3405.84482	7.15802
3403.91626	7.25240
3401.98770	7.30632
3400.05913	7.32705
3398.13057	7.36319
3396.20200	7.41289
3394.27344	7.45593
3392.34487	7.48244
3390.41631	7.49012
3388.48774	7.49180
3386.55918	7.52930
3384.63062	7.58343
3382.70205	7.62459
3380.77349	7.68175
3378.84492	7.73471
3376.91636	7.77312
3374.98779	7.80329
3373.05923	7.82559
3371.13066	7.86154
3369.20210	7.86134
3367.27354	7.77312
3365.34497	7.74486
3363.41641	7.85714
3361.48784	7.98723
3359.55928	8.01296
3357.63071	7.95001
3355.70215	7.93284
3353.77358	7.98501
3351.84502	8.02077
3349.91646	8.04063
3347.98789	8.12300
3346.05933	8.20214
3344.13076	8.16047
3342.20220	8.06221
3340.27363	8.01487
3338.34507	8.06551
3336.41650	8.14951
3334.48794	8.20020
3332.55937	8.19709
3330.63081	8.20571
3328.70225	8.29489
3326.77368	8.32606
3324.84512	8.21916
3322.91655	8.13211
3320.98799	8.09084
3319.05942	8.04316
3317.13086	8.07151
3315.20229	8.17790
3313.27373	8.26897
3311.34517	8.25441
3309.41660	8.17430
3307.48804	8.14676
3305.55947	8.14433
3303.63091	8.15917
3301.70234	8.19854
3299.77378	8.15447
3297.84521	8.06215
3295.91665	8.09319
3293.98809	8.20807
3292.05952	8.32459
3290.13096	8.34929
3288.20239	8.18137
3286.27383	8.04245
3284.34526	8.04844
3282.41670	8.12633
3280.48813	8.24187
3278.55957	8.33872
3276.63101	8.29192
3274.70244	8.19193
3272.77388	8.20784
3270.84531	8.33302
3268.91675	8.49518
3266.98818	8.61421
3265.05962	8.56000
3263.13105	8.29503
3261.20249	8.07668
3259.27393	8.05977
3257.34536	8.17699
3255.41680	8.29582
3253.48823	8.31231
3251.55967	8.21950
3249.63110	8.14008
3247.70254	8.18728
3245.77397	8.30300
3243.84541	8.42098
3241.91685	8.46847
3239.98828	8.33130
3238.05972	8.15304
3236.13115	8.07563
3234.20259	8.08555
3232.27402	8.16656
3230.34546	8.29186
3228.41689	8.34884
3226.48833	8.27125
3224.55977	8.18082
3222.63120	8.15373
3220.70264	8.12374
3218.77407	8.07479
3216.84551	8.02927
3214.91694	7.98602
3212.98838	7.99773
3211.05981	8.07926
3209.13125	8.05406
3207.20269	7.87189
3205.27412	7.76326
3203.34556	7.79129
3201.41699	7.84017
3199.48843	7.83280
3197.55986	7.79330
3195.63130	7.75553
3193.70273	7.72748
3191.77417	7.71238
3189.84561	7.68338
3187.91704	7.63150
3185.98848	7.58392
3184.05991	7.55649
3182.13135	7.51706
3180.20278	7.42004
3178.27422	7.28543
3176.34565	7.19952
3174.41709	7.21059
3172.48853	7.22859
3170.55996	7.15488
3168.63140	7.06112
3166.70283	7.03200
3164.77427	7.02290
3162.84570	6.95434
3160.91714	6.85777
3158.98857	6.80325
3157.06001	6.77080
3155.13145	6.70915
3153.20288	6.61234
3151.27432	6.50629
3149.34575	6.41789
3147.41719	6.34687
3145.48862	6.28974
3143.56006	6.24667
3141.63149	6.18583
3139.70293	6.09520
3137.77437	6.01123
3135.84580	5.94758
3133.91724	5.89151
3131.98867	5.83035
3130.06011	5.76159
3128.13154	5.69891
3126.20298	5.63912
3124.27441	5.56258
3122.34585	5.47362
3120.41729	5.39317
3118.48872	5.32681
3116.56016	5.26155
3114.63159	5.18710
3112.70303	5.11409
3110.77446	5.04981
3108.84590	4.98554
3106.91733	4.91687
3104.98877	4.84613
3103.06021	4.77684
3101.13164	4.71087
3099.20308	4.64625
3097.27451	4.57964
3095.34595	4.51307
3093.41738	4.44855
3091.48882	4.38377
3089.56025	4.31887
3087.63169	4.25342
3085.70312	4.18748
3083.77456	4.12365
3081.84600	4.06149
3079.91743	3.99884
3077.98887	3.93643
3076.06030	3.87508
3074.13174	3.81364
3072.20317	3.75130
3070.27461	3.69047
3068.34604	3.63392
3066.41748	3.57931
3064.48892	3.52364
3062.56035	3.46679
3060.63179	3.41069
3058.70322	3.35639
3056.77466	3.30242
3054.84609	3.24850
3052.91753	3.19503
3050.98896	3.14186
3049.06040	3.08946
3047.13184	3.03878
3045.20327	2.99015
3043.27471	2.94272
3041.34614	2.89456
3039.41758	2.84489
3037.48901	2.79552
3035.56045	2.74740
3033.63188	2.70049
3031.70332	2.65473
3029.77476	2.61001
3027.84619	2.56635
3025.91763	2.52230
3023.98906	2.47763
3022.06050	2.43431
3020.13193	2.39250
3018.20337	2.35132
3016.27480	2.31059
3014.34624	2.27035
3012.41768	2.23098
3010.48911	2.19242
3008.56055	2.15424
3006.63198	2.11645
3004.70342	2.07964
3002.77485	2.04408
3000.84629	2.00893
2998.91772	1.97383
2996.98916	1.93954
2995.06060	1.90614
2993.13203	1.87324
2991.20347	1.84109
2989.27490	1.80988
2987.34634	1.77938
2985.41777	1.74966
2983.48921	1.72056
2981.56064	1.69151
2979.63208	1.66259
2977.70352	1.63454
2975.77495	1.60760
2973.84639	1.58096
2971.91782	1.55407
2969.98926	1.52745
2968.06069	1.50148
2966.13213	1.47618
2964.20356	1.45152
2962.27500	1.42681
2960.34644	1.40163
2958.41787	1.37662
2956.48931	1.35224
2954.56074	1.32859
2952.63218	1.30531
2950.70361	1.28171
2948.77505	1.25799
2946.84648	1.23471
2944.91792	1.21198
2942.98936	1.18973
2941.06079	1.16814
2939.13223	1.14723
2937.20366	1.12657
2935.27510	1.10590
2933.34653	1.08565
2931.41797	1.06611
2929.48940	1.04670
2927.56084	1.02710
2925.63228	1.00764
2923.70371	0.98875
2921.77515	0.97070
2919.84658	0.95355
2917.91802	0.93697
2915.98945	0.92069
2914.06089	0.90461
2912.13232	0.88868
2910.20376	0.87276
2908.27520	0.85695
2906.34663	0.84191
2904.41807	0.82763
2902.48950	0.81353
2900.56094	0.79975
2898.63237	0.78632
2896.70381	0.77273
2894.77524	0.75938
2892.84668	0.74702
2890.91812	0.73523
2888.98955	0.72342
2887.06099	0.71180
2885.13242	0.70064
2883.20386	0.68965
2881.27529	0.67871
2879.34673	0.66805
2877.41816	0.65780
2875.48960	0.64794
2873.56104	0.63821
2871.63247	0.62804
2869.70391	0.61723
2867.77534	0.60606
2865.84678	0.59461
2863.91821	0.58315
2861.98965	0.57216
2860.06108	0.56167
2858.13252	0.55147
2856.20396	0.54157
2854.27539	0.53207
2852.34683	0.52313
2850.41826	0.51487
2848.48970	0.50695
2846.56113	0.49905
2844.63257	0.49140
2842.70400	0.48444
2840.77544	0.47826
2838.84687	0.47218
2836.91831	0.46570
2834.98975	0.45932
2833.06118	0.45329
2831.13262	0.44727
2829.20405	0.44115
2827.27549	0.43513
2825.34692	0.42913
2823.41836	0.42306
2821.48979	0.41713
2819.56123	0.41136
2817.63267	0.40553
2815.70410	0.39975
2813.77554	0.39418
2811.84697	0.38863
2809.91841	0.38301
2807.98984	0.37758
2806.06128	0.37233
2804.13271	0.36707
2802.20415	0.36197
2800.27559	0.35713
2798.34702	0.35228
2796.41846	0.34734
2794.48989	0.34259
2792.56133	0.33800
2790.63276	0.33341
2788.70420	0.32896
2786.77563	0.32465
2784.84707	0.32038
2782.91851	0.31622
2780.98994	0.31212
2779.06138	0.30799
2777.13281	0.30392
2775.20425	0.30000
2773.27568	0.29625
2771.34712	0.29255
2769.41855	0.28873
2767.48999	0.28500
2765.56143	0.28159
2763.63286	0.27829
2761.70430	0.27488
2759.77573	0.27151
2757.84717	0.26820
2755.91860	0.26496
2753.99004	0.26194
2752.06147	0.25914
2750.13291	0.25629
2748.20435	0.25335
2746.27578	0.25056
2744.34722	0.24781
2742.41865	0.24493
2740.49009	0.24216
2738.56152	0.23954
2736.63296	0.23698
2734.70439	0.23449
2732.77583	0.23204
2730.84727	0.22971
2728.91870	0.22754
2726.99014	0.22534
2725.06157	0.22312
2723.13301	0.22096
2721.20444	0.21879
2719.27588	0.21665
2717.34731	0.21463
2715.41875	0.21269
2713.49019	0.21077
2711.56162	0.20887
2709.63306	0.20702
2707.70449	0.20533
2705.77593	0.20370
2703.84736	0.20205
2701.91880	0.20050
2699.99023	0.19912
2698.06167	0.19779
2696.13311	0.19638
2694.20454	0.19490
2692.27598	0.19341
2690.34741	0.19189
2688.41885	0.19053
2686.49028	0.18944
2684.56172	0.18836
2682.63315	0.18721
2680.70459	0.18608
2678.77603	0.18493
2676.84746	0.18377
2674.91890	0.18269
2672.99033	0.18161
2671.06177	0.18047
2669.13320	0.17943
2667.20464	0.17846
2665.27607	0.17751
2663.34751	0.17667
2661.41895	0.17589
2659.49038	0.17509
2657.56182	0.17428
2655.63325	0.17350
2653.70469	0.17277
2651.77612	0.17210
2649.84756	0.17159
2647.91899	0.17110
2645.99043	0.17041
2644.06187	0.16967
2642.13330	0.16919
2640.20474	0.16889
2638.27617	0.16844
2636.34761	0.16776
2634.41904	0.16715
2632.49048	0.16682
2630.56191	0.16661
2628.63335	0.16628
2626.70479	0.16579
2624.77622	0.16531
2622.84766	0.16503
2620.91909	0.16498
2618.99053	0.16492
2617.06196	0.16475
2615.13340	0.16459
2613.20483	0.16443
2611.27627	0.16421
2609.34771	0.16402
2607.41914	0.16396
2605.49058	0.16381
2603.56201	0.16353
2601.63345	0.16340
2599.70488	0.16358
2597.77632	0.16380
2595.84775	0.16386
2593.91919	0.16382
2591.99062	0.16391
2590.06206	0.16411
2588.13350	0.16429
2586.20493	0.16445
2584.27637	0.16464
2582.34780	0.16487
2580.41924	0.16522
2578.49067	0.16562
2576.56211	0.16592
2574.63354	0.16616
2572.70498	0.16647
2570.77642	0.16691
2568.84785	0.16732
2566.91929	0.16768
2564.99072	0.16810
2563.06216	0.16848
2561.13359	0.16871
2559.20503	0.16900
2557.27646	0.16957
2555.34790	0.17029
2553.41934	0.17094
2551.49077	0.17154
2549.56221	0.17215
2547.63364	0.17267
2545.70508	0.17312
2543.77651	0.17361
2541.84795	0.17414
2539.91938	0.17474
2537.99082	0.17548
2536.06226	0.17623
2534.13369	0.17696
2532.20513	0.17772
2530.27656	0.17846
2528.34800	0.17918
2526.41943	0.17985
2524.49087	0.18048
2522.56230	0.18115
2520.63374	0.18190
2518.70518	0.18276
2516.77661	0.18368
2514.84805	0.18454
2512.91948	0.18531
2510.99092	0.18605
2509.06235	0.18681
2507.13379	0.18759
2505.20522	0.18847
2503.27666	0.18940
2501.34810	0.19032
2499.41953	0.19128
2497.49097	0.19221
2495.56240	0.19296
2493.63384	0.19366
2491.70527	0.19444
2489.77671	0.19536
2487.84814	0.19635
2485.91958	0.19731
2483.99102	0.19819
2482.06245	0.19904
2480.13389	0.19994
2478.20532	0.20087
2476.27676	0.20175
2474.34819	0.20268
2472.41963	0.20369
2470.49106	0.20466
2468.56250	0.20561
2466.63394	0.20654
2464.70537	0.20752
2462.77681	0.20856
2460.84824	0.20954
2458.91968	0.21036
2456.99111	0.21118
2455.06255	0.21214
2453.13398	0.21323
2451.20542	0.21431
2449.27686	0.21534
2447.34829	0.21641
2445.41973	0.21750
2443.49116	0.21851
2441.56260	0.21949
2439.63403	0.22053
2437.70547	0.22154
2435.77690	0.22247
2433.84834	0.22345
2431.91978	0.22445
2429.99121	0.22545
2428.06265	0.22659
2426.13408	0.22782
2424.20552	0.22892
2422.27695	0.22998
2420.34839	0.23115
2418.41982	0.23234
2416.49126	0.23344
2414.56270	0.23454
2412.63413	0.23569
2410.70557	0.23683
2408.77700	0.23800
2406.84844	0.23923
2404.91987	0.24050
2402.99131	0.24175
2401.06274	0.24299
2399.13418	0.24429
2397.20562	0.24562
2395.27705	0.24692
2393.34849	0.24814
2391.41992	0.24931
2389.49136	0.25053
2387.56279	0.25187
2385.63423	0.25325
2383.70566	0.25466
2381.77710	0.25614
2379.84854	0.25758
2377.91997	0.25882
2375.99141	0.26013
2374.06284	0.26190
2372.13428	0.26398
2370.20571	0.26592
2368.27715	0.26712
2366.34858	0.26729
2364.42002	0.26779
2362.49146	0.27079
2360.56289	0.27484
2358.63433	0.27711
2356.70576	0.27830
2354.77720	0.27955
2352.84863	0.28095
2350.92007	0.28202
2348.99150	0.28239
2347.06294	0.28270
2345.13437	0.28427
2343.20581	0.28737
2341.27725	0.28941
2339.34868	0.28998
2337.42012	0.29111
2335.49155	0.29337
2333.56299	0.29586
2331.63442	0.29784
2329.70586	0.29953
2327.77729	0.30125
2325.84873	0.30287
2323.92017	0.30452
2321.99160	0.30618
2320.06304	0.30786
2318.13447	0.30971
2316.20591	0.31138
2314.27734	0.31279
2312.34878	0.31423
2310.42021	0.31578
2308.49165	0.31743
2306.56309	0.31923
2304.63452	0.32113
2302.70596	0.32290
2300.77739	0.32445
2298.84883	0.32608
2296.92026	0.32798
2294.99170	0.32992
2293.06313	0.33182
2291.13457	0.33371
2289.20601	0.33558
2287.27744	0.33742
2285.34888	0.33930
2283.42031	0.34131
2281.49175	0.34339
2279.56318	0.34545
2277.63462	0.34758
2275.70605	0.34980
2273.77749	0.35191
2271.84893	0.35386
2269.92036	0.35588
2267.99180	0.35804
2266.06323	0.36022
2264.13467	0.36237
2262.20610	0.36463
2260.27754	0.36697
2258.34897	0.36918
2256.42041	0.37122
2254.49185	0.37325
2252.56328	0.37532
2250.63472	0.37752
2248.70615	0.37991
2246.77759	0.38229
2244.84902	0.38450
2242.92046	0.38666
2240.99189	0.38889
2239.06333	0.39118
2237.13477	0.39345
2235.20620	0.39562
2233.27764	0.39785
2231.34907	0.40020
2229.42051	0.40257
2227.49194	0.40487
2225.56338	0.40713
2223.63481	0.40949
2221.70625	0.41189
2219.77769	0.41415
2217.84912	0.41626
2215.92056	0.41833
2213.99199	0.42042
2212.06343	0.42258
2210.13486	0.42481
2208.20630	0.42706
2206.27773	0.42929
2204.34917	0.43148
2202.42061	0.43362
2200.49204	0.43566
2198.56348	0.43764
2196.63491	0.43959
2194.70635	0.44152
2192.77778	0.44343
2190.84922	0.44534
2188.92065	0.44730
2186.99209	0.44927
2185.06353	0.45114
2183.13496	0.45287
2181.20640	0.45451
2179.27783	0.45609
2177.34927	0.45773
2175.42070	0.45942
2173.49214	0.46106
2171.56357	0.46257
2169.63501	0.46393
2167.70645	0.46515
2165.77788	0.46633
2163.84932	0.46754
2161.92075	0.46876
2159.99219	0.46993
2158.06362	0.47096
2156.13506	0.47188
2154.20649	0.47279
2152.27793	0.47363
2150.34937	0.47437
2148.42080	0.47504
2146.49224	0.47562
2144.56367	0.47603
2142.63511	0.47638
2140.70654	0.47673
2138.77798	0.47703
2136.84941	0.47715
2134.92085	0.47706
2132.99229	0.47693
2131.06372	0.47692
2129.13516	0.47681
2127.20659	0.47635
2125.27803	0.47578
2123.34946	0.47537
2121.42090	0.47496
2119.49233	0.47432
2117.56377	0.47360
2115.63521	0.47292
2113.70664	0.47216
2111.77808	0.47120
2109.84951	0.47014
2107.92095	0.46911
2105.99238	0.46801
2104.06382	0.46669
2102.13525	0.46529
2100.20669	0.46403
2098.27812	0.46271
2096.34956	0.46111
2094.42100	0.45945
2092.49243	0.45785
2090.56387	0.45607
2088.63530	0.45407
2086.70674	0.45209
2084.77817	0.45025
2082.84961	0.44839
2080.92104	0.44632
2078.99248	0.44403
2077.06392	0.44172
2075.13535	0.43956
2073.20679	0.43745
2071.27822	0.43517
2069.34966	0.43271
2067.42109	0.43025
2065.49253	0.42790
2063.56396	0.42558
2061.63540	0.42327
2059.70684	0.42084
2057.77827	0.41815
2055.84971	0.41537
2053.92114	0.41266
2051.99258	0.41001
2050.06401	0.40732
2048.13545	0.40455
2046.20688	0.40174
2044.27832	0.39908
2042.34976	0.39644
2040.42119	0.39360
2038.49263	0.39062
2036.56406	0.38774
2034.63550	0.38498
2032.70693	0.38211
2030.77837	0.37917
2028.84980	0.37626
2026.92124	0.37337
2024.99268	0.37050
2023.06411	0.36770
2021.13555	0.36494
2019.20698	0.36216
2017.27842	0.35928
2015.34985	0.35625
2013.42129	0.35327
2011.49272	0.35050
2009.56416	0.34783
2007.63560	0.34499
2005.70703	0.34202
2003.77847	0.33922
2001.84990	0.33669
1999.92134	0.33419
1997.99277	0.33157
1996.06421	0.32892
1994.13564	0.32635
1992.20708	0.32377
1990.27852	0.32104
1988.34995	0.31833
1986.42139	0.31578
1984.49282	0.31329
1982.56426	0.31072
1980.63569	0.30822
1978.70713	0.30593
1976.77856	0.30371
1974.85000	0.30146
1972.92144	0.29920
1970.99287	0.29704
1969.06431	0.29501
1967.13574	0.29297
1965.20718	0.29083
1963.27861	0.28875
1961.35005	0.28675
1959.42148	0.28475
1957.49292	0.28284
1955.56436	0.28103
1953.63579	0.27921
1951.70723	0.27735
1949.77866	0.27565
1947.85010	0.27411
1945.92153	0.27263
1943.99297	0.27119
1942.06440	0.26967
1940.13584	0.26799
1938.20728	0.26637
1936.27871	0.26497
1934.35015	0.26368
1932.42158	0.26242
1930.49302	0.26114
1928.56445	0.25988
1926.63589	0.25871
1924.70732	0.25776
1922.77876	0.25698
1920.85020	0.25609
1918.92163	0.25510
1916.99307	0.25403
1915.06450	0.25289
1913.13594	0.25189
1911.20737	0.25117
1909.27881	0.25055
1907.35024	0.24986
1905.42168	0.24908
1903.49312	0.24842
1901.56455	0.24790
1899.63599	0.24742
1897.70742	0.24700
1895.77886	0.24663
1893.85029	0.24624
1891.92173	0.24584
1889.99316	0.24566
1888.06460	0.24542
1886.13604	0.24503
1884.20747	0.24472
1882.27891	0.24448
1880.35034	0.24433
1878.42178	0.24429
1876.49321	0.24429
1874.56465	0.24423
1872.63608	0.24426
1870.70752	0.24453
1868.77896	0.24518
1866.85039	0.24558
1864.92183	0.24547
1862.99326	0.24539
1861.06470	0.24553
1859.13613	0.24585
1857.20757	0.24622
1855.27900	0.24667
1853.35044	0.24717
1851.42187	0.24774
1849.49331	0.24836
1847.56475	0.24909
1845.63618	0.25000
1843.70762	0.25100
1841.77905	0.25164
1839.85049	0.25200
1837.92192	0.25273
1835.99336	0.25369
1834.06479	0.25462
1832.13623	0.25561
1830.20767	0.25712
1828.27910	0.25871
1826.35054	0.25976
1824.42197	0.26094
1822.49341	0.26214
1820.56484	0.26326
1818.63628	0.26462
1816.70771	0.26635
1814.77915	0.26808
1812.85059	0.26984
1810.92202	0.27194
1808.99346	0.27408
1807.06489	0.27597
1805.13633	0.27777
1803.20776	0.27996
1801.27920	0.28261
1799.35063	0.28554
1797.42207	0.28816
1795.49351	0.29064
1793.56494	0.29355
1791.63638	0.29728
1789.70781	0.30078
1787.77925	0.30340
1785.85068	0.30645
1783.92212	0.31011
1781.99355	0.31413
1780.06499	0.31843
1778.13643	0.32277
1776.20786	0.32687
1774.27930	0.33139
1772.35073	0.33756
1770.42217	0.34403
1768.49360	0.34927
1766.56504	0.35442
1764.63647	0.35979
1762.70791	0.36574
1760.77935	0.37326
1758.85078	0.38028
1756.92222	0.38738
1754.99365	0.39520
1753.06509	0.40228
1751.13652	0.41069
1749.20796	0.42145
1747.27939	0.43195
1745.35083	0.44111
1743.42227	0.45087
1741.49370	0.46163
1739.56514	0.47414
1737.63657	0.48654
1735.70801	0.49747
1733.77944	0.51420
1731.85088	0.53425
1729.92231	0.54991
1727.99375	0.56583
1726.06519	0.58312
1724.13662	0.60205
1722.20806	0.62244
1720.27949	0.64133
1718.35093	0.66344
1716.42236	0.69592
1714.49380	0.72688
1712.56523	0.75198
1710.63667	0.77627
1708.70811	0.80238
1706.77954	0.83222
1704.85098	0.86808
1702.92241	0.90007
1700.99385	0.93109
1699.06528	0.97726
1697.13672	1.02037
1695.20815	1.06464
1693.27959	1.10796
1691.35103	1.14285
1689.42246	1.18314
1687.49390	1.22586
1685.56533	1.26684
1683.63677	1.32955
1681.70820	1.39540
1679.77964	1.43742
1677.85107	1.47701
1675.92251	1.52228
1673.99395	1.57907
1672.06538	1.63069
1670.13682	1.68117
1668.20825	1.74600
1666.27969	1.79832
1664.35112	1.84298
1662.42256	1.89923
1660.49399	1.96329
1658.56543	2.01300
1656.63687	2.05304
1654.70830	2.08999
1652.77974	2.14624
1650.85117	2.20015
1648.92261	2.22176
1646.99404	2.25065
1645.06548	2.27908
1643.13691	2.29567
1641.20835	2.30406
1639.27979	2.31286
1637.35122	2.31872
1635.42266	2.31714
1633.49409	2.31042
1631.56553	2.29901
1629.63696	2.28297
1627.70840	2.25457
1625.77983	2.22225
1623.85127	2.18088
1621.92271	2.13037
1619.99414	2.08664
1618.06558	2.04399
1616.13701	1.98184
1614.20845	1.91745
1612.27988	1.86829
1610.35132	1.81740
1608.42275	1.76268
1606.49419	1.70957
1604.56562	1.66079
1602.63706	1.61194
1600.70850	1.56329
1598.77993	1.51918
1596.85137	1.47818
1594.92280	1.43840
1592.99424	1.39991
1591.06567	1.36439
1589.13711	1.33061
1587.20854	1.29890
1585.27998	1.26968
1583.35142	1.24242
1581.42285	1.21746
1579.49429	1.19615
1577.56572	1.17697
1575.63716	1.15376
1573.70859	1.13361
1571.78003	1.12058
1569.85146	1.10711
1567.92290	1.09253
1565.99434	1.08205
1564.06577	1.07430
1562.13721	1.06824
1560.20864	1.06452
1558.28008	1.06167
1556.35151	1.05878
1554.42295	1.05597
1552.49438	1.05341
1550.56582	1.04996
1548.63726	1.04446
1546.70869	1.03772
1544.78013	1.02927
1542.85156	1.01801
1540.92300	1.00173
1538.99443	0.97723
1537.06587	0.95954
1535.13730	0.94757
1533.20874	0.93184
1531.28018	0.91478
1529.35161	0.90197
1527.42305	0.89006
1525.49448	0.87792
1523.56592	0.86724
1521.63735	0.85678
1519.70879	0.84646
1517.78022	0.83805
1515.85166	0.82837
1513.92310	0.81796
1511.99453	0.80897
1510.06597	0.80111
1508.13740	0.79344
1506.20884	0.78090
1504.28027	0.76966
1502.35171	0.76350
1500.42314	0.75835
1498.49458	0.75295
1496.56602	0.74661
1494.63745	0.74012
1492.70889	0.73501
1490.78032	0.73068
1488.85176	0.72576
1486.92319	0.72093
1484.99463	0.71707
1483.06606	0.71406
1481.13750	0.71150
1479.20894	0.70941
1477.28037	0.70812
1475.35181	0.70749
1473.42324	0.70699
1471.49468	0.70545
1469.56611	0.70284
1467.63755	0.70014
1465.70898	0.69768
1463.78042	0.69557
1461.85186	0.69408
1459.92329	0.69320
1457.99473	0.69267
1456.06616	0.69112
1454.13760	0.68796
1452.20903	0.68497
1450.28047	0.68246
1448.35190	0.67997
1446.42334	0.67705
1444.49478	0.67422
1442.56621	0.67172
1440.63765	0.66930
1438.70908	0.66680
1436.78052	0.66376
1434.85195	0.66050
1432.92339	0.65794
1430.99482	0.65592
1429.06626	0.65438
1427.13770	0.65350
1425.20913	0.65320
1423.28057	0.65309
1421.35200	0.65269
1419.42344	0.65231
1417.49487	0.65198
1415.56631	0.65110
1413.63774	0.65013
1411.70918	0.64954
1409.78062	0.64953
1407.85205	0.64999
1405.92349	0.65075
1403.99492	0.65141
1402.06636	0.65144
1400.13779	0.65084
1398.20923	0.64943
1396.28066	0.64713
1394.35210	0.64402
1392.42354	0.64046
1390.49497	0.63720
1388.56641	0.63402
1386.63784	0.63012
1384.70928	0.62587
1382.78071	0.62200
1380.85215	0.61840
1378.92358	0.61519
1376.99502	0.61269
1375.06646	0.61085
1373.13789	0.60931
1371.20933	0.60809
1369.28076	0.60709
1367.35220	0.60586
1365.42363	0.60443
1363.49507	0.60312
1361.56650	0.60180
1359.63794	0.60031
1357.70937	0.59898
1355.78081	0.59782
1353.85225	0.59672
1351.92368	0.59576
1349.99512	0.59507
1348.06655	0.59443
1346.13799	0.59362
1344.20942	0.59286
1342.28086	0.59228
1340.35229	0.59179
1338.42373	0.59110
1336.49517	0.59024
1334.56660	0.58953
1332.63804	0.58915
1330.70947	0.58903
1328.78091	0.58893
1326.85234	0.58888
1324.92378	0.58906
1322.99521	0.58934
1321.06665	0.58953
1319.13809	0.58958
1317.20952	0.58944
1315.28096	0.58916
1313.35239	0.58871
1311.42383	0.58814
1309.49526	0.58765
1307.56670	0.58712
1305.63813	0.58635
1303.70957	0.58560
1301.78101	0.58501
1299.85244	0.58435
1297.92388	0.58360
1295.99531	0.58270
1294.06675	0.58136
1292.13818	0.57979
1290.20962	0.57839
1288.28105	0.57727
1286.35249	0.57632
1284.42393	0.57544
1282.49536	0.57444
1280.56680	0.57332
1278.63823	0.57217
1276.70967	0.57107
1274.78110	0.57002
1272.85254	0.56905
1270.92397	0.56828
1268.99541	0.56769
1267.06685	0.56717
1265.13828	0.56652
1263.20972	0.56582
1261.28115	0.56535
1259.35259	0.56504
1257.42402	0.56462
1255.49546	0.56427
1253.56689	0.56424
1251.63833	0.56431
1249.70977	0.56418
1247.78120	0.56399
1245.85264	0.56400
1243.92407	0.56388
1241.99551	0.56317
1240.06694	0.56206
1238.13838	0.56086
1236.20981	0.55934
1234.28125	0.55738
1232.35269	0.55541
1230.42412	0.55383
1228.49556	0.55250
1226.56699	0.55108
1224.63843	0.54956
1222.70986	0.54802
1220.78130	0.54650
1218.85273	0.54531
1216.92417	0.54433
1214.99561	0.54329
1213.06704	0.54239
1211.13848	0.54166
1209.20991	0.54088
1207.28135	0.54002
1205.35278	0.53919
1203.42422	0.53843
1201.49565	0.53769
1199.56709	0.53698
1197.63853	0.53624
1195.70996	0.53544
1193.78140	0.53476
1191.85283	0.53431
1189.92427	0.53407
1187.99570	0.53388
1186.06714	0.53367
1184.13857	0.53367
1182.21001	0.53401
1180.28145	0.53466
1178.35288	0.53569
1176.42432	0.53699
1174.49575	0.53822
1172.56719	0.53903
1170.63862	0.53919
1168.71006	0.53893
1166.78149	0.53876
1164.85293	0.53879
1162.92437	0.53861
1160.99580	0.53820
1159.06724	0.53768
1157.13867	0.53683
1155.21011	0.53558
1153.28154	0.53409
1151.35298	0.53243
1149.42441	0.53043
1147.49585	0.52792
1145.56729	0.52514
1143.63872	0.52257
1141.71016	0.52030
1139.78159	0.51812
1137.85303	0.51597
1135.92446	0.51404
1133.99590	0.51240
1132.06733	0.51089
1130.13877	0.50956
1128.21021	0.50848
1126.28164	0.50741
1124.35308	0.50626
1122.42451	0.50519
1120.49595	0.50434
1118.56738	0.50389
1116.63882	0.50386
1114.71025	0.50401
1112.78169	0.50409
1110.85312	0.50412
1108.92456	0.50462
1106.99600	0.50589
1105.06743	0.50744
1103.13887	0.50893
1101.21030	0.51055
1099.28174	0.51257
1097.35317	0.51527
1095.42461	0.51863
1093.49604	0.52214
1091.56748	0.52587
1089.63892	0.53025
1087.71035	0.53535
1085.78179	0.54131
1083.85322	0.54785
1081.92466	0.55402
1079.99609	0.55911
1078.06753	0.56261
1076.13896	0.56372
1074.21040	0.56204
1072.28184	0.55800
1070.35327	0.55229
1068.42471	0.54558
1066.49614	0.53876
1064.56758	0.53252
1062.63901	0.52701
1060.71045	0.52205
1058.78188	0.51757
1056.85332	0.51354
1054.92476	0.50983
1052.99619	0.50648
1051.06763	0.50348
1049.13906	0.50087
1047.21050	0.49870
1045.28193	0.49684
1043.35337	0.49508
1041.42480	0.49348
1039.49624	0.49228
1037.56768	0.49154
1035.63911	0.49118
1033.71055	0.49109
1031.78198	0.49111
1029.85342	0.49118
1027.92485	0.49130
1025.99629	0.49139
1024.06772	0.49150
1022.13916	0.49181
1020.21060	0.49247
1018.28203	0.49345
1016.35347	0.49447
1014.42490	0.49546
1012.49634	0.49650
1010.56777	0.49771
1008.63921	0.49916
1006.71064	0.50083
1004.78208	0.50296
1002.85352	0.50553
1000.92495	0.50830
998.99639	0.51138
997.06782	0.51495
995.13926	0.51885
993.21069	0.52277
991.28213	0.52624
989.35356	0.52879
987.42500	0.53032
985.49644	0.53121
983.56787	0.53194
981.63931	0.53271
979.71074	0.53390
977.78218	0.53595
975.85361	0.53876
973.92505	0.54176
971.99648	0.54471
970.06792	0.54798
968.13936	0.55170
966.21079	0.55570
964.28223	0.56024
962.35366	0.56546
960.42510	0.57087
958.49653	0.57616
956.56797	0.58176
954.63940	0.58773
952.71084	0.59365
950.78228	0.59978
948.85371	0.60627
946.92515	0.61274
944.99658	0.61923
943.06802	0.62568
941.13945	0.63177
939.21089	0.63761
937.28232	0.64353
935.35376	0.64943
933.42520	0.65496
931.49663	0.66031
929.56807	0.66594
927.63950	0.67198
925.71094	0.67852
923.78237	0.68553
921.85381	0.69232
919.92524	0.69843
917.99668	0.70482
916.06812	0.71199
914.13955	0.71886
912.21099	0.72584
910.28242	0.73462
908.35386	0.74447
906.42529	0.75352
904.49673	0.76186
902.56816	0.77061
900.63960	0.77999
898.71104	0.78920
896.78247	0.79870
894.85391	0.80952
892.92534	0.82059
890.99678	0.83118
889.06821	0.84209
887.13965	0.85313
885.21108	0.86393
883.28252	0.87498
881.35396	0.88658
879.42539	0.89844
877.49683	0.91019
875.56826	0.92178
873.63970	0.93295
871.71113	0.94374
869.78257	0.95562
867.85400	0.96865
865.92544	0.98036
863.99687	0.99154
862.06831	1.00399
860.13975	1.01597
858.21118	1.02791
856.28262	1.04109
854.35405	1.05300
852.42549	1.06285
850.49692	1.07381
848.56836	1.08744
846.63979	1.10090
844.71123	1.11192
842.78267	1.12223
840.85410	1.13360
838.92554	1.14663
836.99697	1.16074
835.06841	1.17036
833.13984	1.17409
831.21128	1.17975
829.28271	1.19088
827.35415	1.20471
825.42559	1.21831
823.49702	1.23250
821.56846	1.24558
819.63989	1.25122
817.71133	1.25381
815.78276	1.26545
813.85420	1.28687
811.92563	1.30762
809.99707	1.32280
808.06851	1.33868
806.13994	1.35825
804.21138	1.36561
802.28281	1.36420
800.35425	1.38239
798.42568	1.41010
796.49712	1.41402
794.56855	1.41034
792.63999	1.44670
790.71143	1.50467
788.78286	1.49246
786.85430	1.43968
784.92573	1.43049
782.99717	1.46027
781.06860	1.47685
779.14004	1.45601
777.21147	1.43615
775.28291	1.44552
773.35435	1.44122
771.42578	1.37222
769.49722	1.29914
767.56865	1.29871
765.64009	1.38994
763.71152	1.47925
761.78296	1.36209
759.85439	1.21291
757.92583	1.18801
755.99727	1.28746
754.06870	1.47852
752.14014	1.70482
750.21157	1.97334
748.28301	2.75245
746.35444	1.69959
744.42588	1.33543
742.49731	1.33150
740.56875	1.46365
738.64019	1.31821
736.71162	1.05646
734.78306	0.90429
732.85449	0.93632
730.92593	1.14131
728.99736	0.94035
727.06880	0.67825
725.14023	0.49609
723.21167	0.29895
721.28311	0.19115
719.35454	0.19849
717.42598	0.15686
715.49741	-0.07667
713.56885	-0.28748
711.64028	-0.21192
709.71172	0.06967
707.78315	0.08904
705.85459	-0.00449
703.92603	-0.00011
701.99746	0.05441
700.06890	0.15458
698.14033	0.31762
696.21177	0.43072
694.28320	0.38411
692.35464	0.36761
690.42607	0.51199
688.49751	0.70520
686.56895	0.57806
684.64038	0.49107
682.71182	0.61664
680.78325	0.68979
678.85469	0.71242
676.92612	0.70508
674.99756	0.56859
673.06899	0.46952
671.14043	0.35382
669.21187	0.28235
667.28330	0.31371
665.35474	0.36460
663.42617	0.28612
661.49761	0.18547
659.56904	0.18083
657.64048	0.30879
655.71191	0.59539
653.78335	0.85315
651.85479	0.65536
649.92622	0.52246
647.99766	0.40649
646.06909	0.35447
644.14053	0.39063
642.21196	0.39726
640.28340	0.34673
638.35483	0.30226
636.42627	0.25364
634.49771	0.22511
632.56914	0.24117
630.64058	0.27350
628.71201	0.27041
626.78345	0.23142
624.85488	0.21405
622.92632	0.24203
620.99775	0.31497
619.06919	0.42460
617.14062	0.51837
615.21206	0.52282
613.28350	0.52329
611.35493	0.59760
609.42637	0.61034
607.49780	0.54660
605.56924	0.44481
603.64067	0.29420
601.71211	0.20428
599.78354	0.24008
597.85498	0.36534
595.92642	0.50582
593.99785	0.55245
592.06929	0.52383
590.14072	0.52855
588.21216	0.48836
586.28359	0.41824
584.35503	0.36274
582.42646	0.33108
580.49790	0.29745
578.56934	0.29057
576.64077	0.33169
574.71221	0.29965
572.78364	0.22254
570.85508	0.22360
568.92651	0.34420
566.99795	0.47876
565.06938	0.38041
563.14082	0.29504
561.21226	0.33807
559.28369	0.49656
557.35513	0.55073
555.42656	0.48119
553.49800	0.48531
551.56943	0.48619
549.64087	0.44025
547.71230	0.50201
545.78374	0.69385
543.85518	0.61311
541.92661	0.47287
539.99805	0.42015
538.06948	0.36896
536.14092	0.28962
534.21235	0.23954
532.28379	0.22715
530.35522	0.25611
528.42666	0.30330
526.49810	0.31663
524.56953	0.36876
522.64097	0.51099
520.71240	0.51786
518.78384	0.36233
516.85527	0.33664
514.92671	0.39565
512.99814	0.34698
511.06958	0.28660
509.14102	0.32790
507.21245	0.38842
505.28389	0.38219
503.35532	0.33385
501.42676	0.28466
499.49819	0.26634
