3997.91411	0.09198
3995.98555	0.09203
3994.05698	0.09255
3992.12842	0.09331
3990.19985	0.09384
3988.27129	0.09400
3986.34272	0.09417
3984.41416	0.09453
3982.48560	0.09462
3980.55703	0.09449
3978.62847	0.09464
3976.69990	0.09500
3974.77134	0.09541
3972.84277	0.09584
3970.91421	0.09604
3968.98564	0.09608
3967.05708	0.09603
3965.12852	0.09581
3963.19995	0.09572
3961.27139	0.09594
3959.34282	0.09619
3957.41426	0.09641
3955.48569	0.09656
3953.55713	0.09651
3951.62856	0.09656
3949.70000	0.09708
3947.77144	0.09760
3945.84287	0.09739
3943.91431	0.09722
3941.98574	0.09766
3940.05718	0.09749
3938.12861	0.09672
3936.20005	0.09643
3934.27148	0.09673
3932.34292	0.09743
3930.41436	0.09796
3928.48579	0.09763
3926.55723	0.09694
3924.62866	0.09676
3922.70010	0.09696
3920.77153	0.09699
3918.84297	0.09698
3916.91440	0.09707
3914.98584	0.09677
3913.05728	0.09602
3911.12871	0.09538
3909.20015	0.09511
3907.27158	0.09537
3905.34302	0.09653
3903.41445	0.09831
3901.48589	0.09938
3899.55732	0.09945
3897.62876	0.09870
3895.70020	0.09736
3893.77163	0.09662
3891.84307	0.09719
3889.91450	0.09767
3887.98594	0.09704
3886.05737	0.09729
3884.12881	0.09859
3882.20024	0.09879
3880.27168	0.09817
3878.34312	0.09755
3876.41455	0.09726
3874.48599	0.09807
3872.55742	0.09950
3870.62886	0.10077
3868.70029	0.10172
3866.77173	0.10138
3864.84316	0.10087
3862.91460	0.10123
3860.98604	0.10105
3859.05747	0.10038
3857.12891	0.10064
3855.20034	0.10232
3853.27178	0.10555
3851.34321	0.10745
3849.41465	0.10539
3847.48608	0.10290
3845.55752	0.10169
3843.62896	0.10221
3841.70039	0.10430
3839.77183	0.10714
3837.84326	0.10974
3835.91470	0.11054
3833.98613	0.10977
3832.05757	0.10918
3830.12900	0.10888
3828.20044	0.10852
3826.27187	0.10893
3824.34331	0.11014
3822.41475	0.11179
3820.48618	0.11449
3818.55762	0.11612
3816.62905	0.11622
3814.70049	0.11650
3812.77192	0.11601
3810.84336	0.11523
3808.91479	0.11552
3806.98623	0.11718
3805.05767	0.11916
3803.12910	0.12086
3801.20054	0.12385
3799.27197	0.12642
3797.34341	0.12640
3795.41484	0.12565
3793.48628	0.12497
3791.55771	0.12528
3789.62915	0.12691
3787.70059	0.12890
3785.77202	0.13073
3783.84346	0.13226
3781.91489	0.13346
3779.98633	0.13531
3778.05776	0.13773
3776.12920	0.13884
3774.20063	0.13933
3772.27207	0.14090
3770.34351	0.14368
3768.41494	0.14643
3766.48638	0.14812
3764.55781	0.14963
3762.62925	0.15116
3760.70068	0.15310
3758.77212	0.15626
3756.84355	0.15939
3754.91499	0.16152
3752.98643	0.16425
3751.05786	0.16923
3749.12930	0.17490
3747.20073	0.17728
3745.27217	0.17886
3743.34360	0.18281
3741.41504	0.18649
3739.48647	0.18855
3737.55791	0.19175
3735.62935	0.19803
3733.70078	0.20558
3731.77222	0.20981
3729.84365	0.21174
3727.91509	0.21447
3725.98652	0.21990
3724.05796	0.22729
3722.12939	0.23429
3720.20083	0.24074
3718.27227	0.24721
3716.34370	0.25402
3714.41514	0.26128
3712.48657	0.27115
3710.55801	0.28617
3708.62944	0.30129
3706.70088	0.31233
3704.77231	0.32263
3702.84375	0.33528
3700.91519	0.35243
3698.98662	0.37111
3697.05806	0.38864
3695.12949	0.40752
3693.20093	0.42788
3691.27236	0.45011
3689.34380	0.47902
3687.41523	0.51438
3685.48667	0.54456
3683.55811	0.57001
3681.62954	0.59785
3679.70098	0.63017
3677.77241	0.66444
3675.84385	0.70490
3673.91528	0.75906
3671.98672	0.80252
3670.05815	0.84100
3668.12959	0.89440
3666.20103	0.94305
3664.27246	0.98378
3662.34390	1.02780
3660.41533	1.07546
3658.48677	1.12213
3656.55820	1.17169
3654.62964	1.22737
3652.70107	1.27437
3650.77251	1.31542
3648.84395	1.37228
3646.91538	1.44125
3644.98682	1.49127
3643.05825	1.52949
3641.12969	1.56874
3639.20112	1.61279
3637.27256	1.65735
3635.34399	1.70070
3633.41543	1.74457
3631.48687	1.78555
3629.55830	1.82671
3627.62974	1.88090
3625.70117	1.93098
3623.77261	1.96416
3621.84404	1.99673
3619.91548	2.03581
3617.98691	2.08309
3616.05835	2.12706
3614.12979	2.16292
3612.20122	2.20099
3610.27266	2.24052
3608.34409	2.28073
3606.41553	2.32274
3604.48696	2.36186
3602.55840	2.39724
3600.62983	2.43553
3598.70127	2.47772
3596.77271	2.51896
3594.84414	2.55885
3592.91558	2.59837
3590.98701	2.63654
3589.05845	2.67406
3587.12988	2.71865
3585.20132	2.76602
3583.27275	2.80613
3581.34419	2.84430
3579.41562	2.88631
3577.48706	2.93064
3575.55850	2.97263
3573.62993	3.01415
3571.70137	3.05647
3569.77280	3.09777
3567.84424	3.14043
3565.91567	3.19184
3563.98711	3.24233
3562.05854	3.28516
3560.12998	3.32960
3558.20142	3.37558
3556.27285	3.41943
3554.34429	3.46234
3552.41572	3.50859
3550.48716	3.55796
3548.55859	3.60648
3546.63003	3.65264
3544.70146	3.69974
3542.77290	3.74844
3540.84434	3.79639
3538.91577	3.84275
3536.98721	3.88752
3535.05864	3.93474
3533.13008	3.98388
3531.20151	4.03298
3529.27295	4.08125
3527.34438	4.12754
3525.41582	4.17413
3523.48726	4.22466
3521.55869	4.27753
3519.63013	4.32715
3517.70156	4.37349
3515.77300	4.41721
3513.84443	4.46045
3511.91587	4.50578
3509.98730	4.55223
3508.05874	4.60219
3506.13018	4.65615
3504.20161	4.70738
3502.27305	4.75867
3500.34448	4.81327
3498.41592	4.86195
3496.48735	4.90493
3494.55879	4.95167
3492.63022	5.00276
3490.70166	5.04987
3488.77310	5.09747
3486.84453	5.15211
3484.91597	5.20285
3482.98740	5.24828
3481.05884	5.30283
3479.13027	5.36546
3477.20171	5.42215
3475.27314	5.46695
3473.34458	5.50206
3471.41602	5.53672
3469.48745	5.57871
3467.55889	5.62535
3465.63032	5.67292
3463.70176	5.72503
3461.77319	5.78205
3459.84463	5.84350
3457.91606	5.89918
3455.98750	5.93633
3454.05894	5.97166
3452.13037	6.02594
3450.20181	6.08523
3448.27324	6.13285
3446.34468	6.18680
3444.41611	6.24989
3442.48755	6.30189
3440.55898	6.33793
3438.63042	6.37109
3436.70186	6.41950
3434.77329	6.48089
3432.84473	6.53335
3430.91616	6.57965
3428.98760	6.64329
3427.05903	6.71914
3425.13047	6.78879
3423.20190	6.82559
3421.27334	6.83564
3419.34478	6.86508
3417.41621	6.93679
3415.48765	7.01447
3413.55908	7.05545
3411.63052	7.08845
3409.70195	7.13856
3407.77339	7.18406
3405.84482	7.20527
3403.91626	7.23833
3401.98770	7.28935
3400.05913	7.34742
3398.13057	7.43893
3396.20200	7.51544
3394.27344	7.52945
3392.34487	7.52893
3390.41631	7.55371
3388.48774	7.57407
3386.55918	7.60677
3384.63062	7.69920
3382.70205	7.81076
3380.77349	7.85458
3378.84492	7.86125
3376.91636	7.87864
3374.98779	7.81513
3373.05923	7.70684
3371.13066	7.68064
3369.20210	7.73569
3367.27354	7.83464
3365.34497	7.98738
3363.41641	8.07420
3361.48784	8.02594
3359.55928	8.00912
3357.63071	8.09093
3355.70215	8.25727
3353.77358	8.42530
3351.84502	8.44547
3349.91646	8.29843
3347.98789	8.18634
3346.05933	8.18631
3344.13076	8.16317
3342.20220	8.09511
3340.27363	8.09113
3338.34507	8.18987
3336.41650	8.27518
3334.48794	8.29963
3332.55937	8.34565
3330.63081	8.36922
3328.70225	8.29833
3326.77368	8.27104
3324.84512	8.29926
3322.91655	8.26451
3320.98799	8.26188
3319.05942	8.28801
3317.13086	8.26521
3315.20229	8.19899
3313.27373	8.12791
3311.34517	8.13056
3309.41660	8.18079
3307.48804	8.16264
3305.55947	8.13780
3303.63091	8.20890
3301.70234	8.26163
3299.77378	8.25622
3297.84521	8.24604
3295.91665	8.20074
3293.98809	8.14900
3292.05952	8.19855
3290.13096	8.33762
3288.20239	8.39028
3286.27383	8.33603
3284.34526	8.31669
3282.41670	8.37963
3280.48813	8.42439
3278.55957	8.37549
3276.63101	8.25568
3274.70244	8.19588
3272.77388	8.34448
3270.84531	8.52238
3268.91675	8.39786
3266.98818	8.21768
3265.05962	8.23666
3263.13105	8.32388
3261.20249	8.37733
3259.27393	8.42997
3257.34536	8.50114
3255.41680	8.60958
3253.48823	8.59877
3251.55967	8.38694
3249.63110	8.23922
3247.70254	8.24060
3245.77397	8.21148
3243.84541	8.12753
3241.91685	8.13321
3239.98828	8.18289
3238.05972	8.17472
3236.13115	8.27040
3234.20259	8.44283
3232.27402	8.38007
3230.34546	8.21300
3228.41689	8.16786
3226.48833	8.29739
3224.55977	8.55496
3222.63120	8.57303
3220.70264	8.26811
3218.77407	8.06891
3216.84551	8.05184
3214.91694	8.05560
3212.98838	8.02658
3211.05981	7.97947
3209.13125	7.93633
3207.20269	7.94499
3205.27412	7.97741
3203.34556	7.98072
3201.41699	7.97672
3199.48843	7.95333
3197.55986	7.92582
3195.63130	7.95605
3193.70273	7.99849
3191.77417	7.94112
3189.84561	7.78101
3187.91704	7.64800
3185.98848	7.59376
3184.05991	7.56423
3182.13135	7.53249
3180.20278	7.48886
3178.27422	7.42917
3176.34565	7.38132
3174.41709	7.35349
3172.48853	7.31937
3170.55996	7.25126
3168.63140	7.15639
3166.70283	7.07540
3164.77427	7.03815
3162.84570	6.99638
3160.91714	6.90233
3158.98857	6.81395
3157.06001	6.75434
3155.13145	6.68910
3153.20288	6.61986
3151.27432	6.56722
3149.34575	6.52131
3147.41719	6.45691
3145.48862	6.38450
3143.56006	6.31524
3141.63149	6.24219
3139.70293	6.17811
3137.77437	6.12786
3135.84580	6.06209
3133.91724	5.97662
3131.98867	5.89151
3130.06011	5.80366
3128.13154	5.71507
3126.20298	5.64204
3124.27441	5.58336
3122.34585	5.51770
3120.41729	5.43819
3118.48872	5.35718
3116.56016	5.28150
3114.63159	5.21051
3112.70303	5.14127
3110.77446	5.06968
3108.84590	4.99731
3106.91733	4.93126
3104.98877	4.86751
3103.06021	4.79838
3101.13164	4.72761
3099.20308	4.66088
3097.27451	4.59608
3095.34595	4.52712
3093.41738	4.45546
3091.48882	4.38522
3089.56025	4.31482
3087.63169	4.24691
3085.70312	4.18518
3083.77456	4.12436
3081.84600	4.06069
3079.91743	3.99634
3077.98887	3.93229
3076.06030	3.87011
3074.13174	3.81080
3072.20317	3.75137
3070.27461	3.69159
3068.34604	3.63353
3066.41748	3.57554
3064.48892	3.51626
3062.56035	3.45723
3060.63179	3.40027
3058.70322	3.34443
3056.77466	3.28769
3054.84609	3.23188
3052.91753	3.17890
3050.98896	3.12714
3049.06040	3.07534
3047.13184	3.02311
3045.20327	2.97045
3043.27471	2.91860
3041.34614	2.86879
3039.41758	2.82085
3037.48901	2.77336
3035.56045	2.72622
3033.63188	2.68017
3031.70332	2.63456
3029.77476	2.58895
3027.84619	2.54358
3025.91763	2.49908
3023.98906	2.45557
3022.06050	2.41250
3020.13193	2.37013
3018.20337	2.32917
3016.27480	2.28962
3014.34624	2.25064
3012.41768	2.21125
3010.48911	2.17168
3008.56055	2.13303
3006.63198	2.09552
3004.70342	2.05873
3002.77485	2.02225
3000.84629	1.98600
2998.91772	1.95028
2996.98916	1.91554
2995.06060	1.88179
2993.13203	1.84814
2991.20347	1.81456
2989.27490	1.78176
2987.34634	1.74928
2985.41777	1.71718
2983.48921	1.68630
2981.56064	1.65590
2979.63208	1.62537
2977.70352	1.59558
2975.77495	1.56659
2973.84639	1.53759
2971.91782	1.50844
2969.98926	1.47944
2968.06069	1.45103
2966.13213	1.42335
2964.20356	1.39583
2962.27500	1.36866
2960.34644	1.34280
2958.41787	1.31840
2956.48931	1.29463
2954.56074	1.27076
2952.63218	1.24722
2950.70361	1.22418
2948.77505	1.20141
2946.84648	1.17939
2944.91792	1.15768
2942.98936	1.13535
2941.06079	1.11289
2939.13223	1.09099
2937.20366	1.06933
2935.27510	1.04786
2933.34653	1.02719
2931.41797	1.00705
2929.48940	0.98670
2927.56084	0.96679
2925.63228	0.94820
2923.70371	0.93114
2921.77515	0.91532
2919.84658	0.89959
2917.91802	0.88360
2915.98945	0.86867
2914.06089	0.85473
2912.13232	0.84071
2910.20376	0.82686
2908.27520	0.81322
2906.34663	0.79954
2904.41807	0.78620
2902.48950	0.77336
2900.56094	0.76104
2898.63237	0.74902
2896.70381	0.73678
2894.77524	0.72455
2892.84668	0.71261
2890.91812	0.70066
2888.98955	0.68885
2887.06099	0.67756
2885.13242	0.66650
2883.20386	0.65539
2881.27529	0.64447
2879.34673	0.63369
2877.41816	0.62269
2875.48960	0.61156
2873.56104	0.60076
2871.63247	0.59039
2869.70391	0.58010
2867.77534	0.56992
2865.84678	0.56020
2863.91821	0.55077
2861.98965	0.54108
2860.06108	0.53093
2858.13252	0.52060
2856.20396	0.51068
2854.27539	0.50165
2852.34683	0.49361
2850.41826	0.48657
2848.48970	0.48013
2846.56113	0.47368
2844.63257	0.46744
2842.70400	0.46180
2840.77544	0.45648
2838.84687	0.45106
2836.91831	0.44544
2834.98975	0.43963
2833.06118	0.43378
2831.13262	0.42801
2829.20405	0.42228
2827.27549	0.41652
2825.34692	0.41064
2823.41836	0.40472
2821.48979	0.39890
2819.56123	0.39325
2817.63267	0.38785
2815.70410	0.38251
2813.77554	0.37713
2811.84697	0.37178
2809.91841	0.36654
2807.98984	0.36138
2806.06128	0.35630
2804.13271	0.35126
2802.20415	0.34628
2800.27559	0.34153
2798.34702	0.33710
2796.41846	0.33276
2794.48989	0.32822
2792.56133	0.32361
2790.63276	0.31930
2788.70420	0.31526
2786.77563	0.31118
2784.84707	0.30719
2782.91851	0.30341
2780.98994	0.29963
2779.06138	0.29585
2777.13281	0.29221
2775.20425	0.28858
2773.27568	0.28486
2771.34712	0.28127
2769.41855	0.27787
2767.48999	0.27451
2765.56143	0.27110
2763.63286	0.26783
2761.70430	0.26486
2759.77573	0.26202
2757.84717	0.25908
2755.91860	0.25620
2753.99004	0.25351
2752.06147	0.25071
2750.13291	0.24763
2748.20435	0.24454
2746.27578	0.24168
2744.34722	0.23913
2742.41865	0.23679
2740.49009	0.23440
2738.56152	0.23189
2736.63296	0.22956
2734.70439	0.22744
2732.77583	0.22529
2730.84727	0.22304
2728.91870	0.22091
2726.99014	0.21891
2725.06157	0.21689
2723.13301	0.21483
2721.20444	0.21273
2719.27588	0.21065
2717.34731	0.20871
2715.41875	0.20693
2713.49019	0.20518
2711.56162	0.20342
2709.63306	0.20179
2707.70449	0.20031
2705.77593	0.19881
2703.84736	0.19727
2701.91880	0.19581
2699.99023	0.19438
2698.06167	0.19282
2696.13311	0.19123
2694.20454	0.18983
2692.27598	0.18855
2690.34741	0.18728
2688.41885	0.18609
2686.49028	0.18501
2684.56172	0.18400
2682.63315	0.18284
2680.70459	0.18157
2678.77603	0.18048
2676.84746	0.17954
2674.91890	0.17851
2672.99033	0.17745
2671.06177	0.17654
2669.13320	0.17569
2667.20464	0.17477
2665.27607	0.17393
2663.34751	0.17313
2661.41895	0.17228
2659.49038	0.17157
2657.56182	0.17101
2655.63325	0.17030
2653.70469	0.16957
2651.77612	0.16907
2649.84756	0.16857
2647.91899	0.16795
2645.99043	0.16741
2644.06187	0.16695
2642.13330	0.16647
2640.20474	0.16618
2638.27617	0.16600
2636.34761	0.16561
2634.41904	0.16505
2632.49048	0.16470
2630.56191	0.16451
2628.63335	0.16426
2626.70479	0.16400
2624.77622	0.16382
2622.84766	0.16369
2620.91909	0.16357
2618.99053	0.16334
2617.06196	0.16297
2615.13340	0.16277
2613.20483	0.16277
2611.27627	0.16284
2609.34771	0.16290
2607.41914	0.16285
2605.49058	0.16275
2603.56201	0.16273
2601.63345	0.16280
2599.70488	0.16295
2597.77632	0.16320
2595.84775	0.16340
2593.91919	0.16345
2591.99062	0.16354
2590.06206	0.16386
2588.13350	0.16426
2586.20493	0.16453
2584.27637	0.16480
2582.34780	0.16515
2580.41924	0.16554
2578.49067	0.16589
2576.56211	0.16618
2574.63354	0.16649
2572.70498	0.16691
2570.77642	0.16737
2568.84785	0.16783
2566.91929	0.16830
2564.99072	0.16871
2563.06216	0.16922
2561.13359	0.16988
2559.20503	0.17051
2557.27646	0.17094
2555.34790	0.17122
2553.41934	0.17166
2551.49077	0.17232
2549.56221	0.17305
2547.63364	0.17379
2545.70508	0.17462
2543.77651	0.17543
2541.84795	0.17605
2539.91938	0.17658
2537.99082	0.17722
2536.06226	0.17806
2534.13369	0.17897
2532.20513	0.17975
2530.27656	0.18048
2528.34800	0.18130
2526.41943	0.18217
2524.49087	0.18299
2522.56230	0.18375
2520.63374	0.18455
2518.70518	0.18545
2516.77661	0.18634
2514.84805	0.18716
2512.91948	0.18794
2510.99092	0.18863
2509.06235	0.18940
2507.13379	0.19040
2505.20522	0.19151
2503.27666	0.19251
2501.34810	0.19335
2499.41953	0.19413
2497.49097	0.19491
2495.56240	0.19581
2493.63384	0.19684
2491.70527	0.19790
2489.77671	0.19888
2487.84814	0.19970
2485.91958	0.20054
2483.99102	0.20151
2482.06245	0.20253
2480.13389	0.20356
2478.20532	0.20454
2476.27676	0.20552
2474.34819	0.20649
2472.41963	0.20746
2470.49106	0.20848
2468.56250	0.20955
2466.63394	0.21058
2464.70537	0.21157
2462.77681	0.21260
2460.84824	0.21362
2458.91968	0.21461
2456.99111	0.21558
2455.06255	0.21657
2453.13398	0.21758
2451.20542	0.21869
2449.27686	0.21989
2447.34829	0.22102
2445.41973	0.22201
2443.49116	0.22296
2441.56260	0.22389
2439.63403	0.22485
2437.70547	0.22596
2435.77690	0.22727
2433.84834	0.22864
2431.91978	0.22987
2429.99121	0.23093
2428.06265	0.23191
2426.13408	0.23289
2424.20552	0.23393
2422.27695	0.23511
2420.34839	0.23627
2418.41982	0.23738
2416.49126	0.23857
2414.56270	0.23981
2412.63413	0.24101
2410.70557	0.24216
2408.77700	0.24341
2406.84844	0.24476
2404.91987	0.24609
2402.99131	0.24733
2401.06274	0.24851
2399.13418	0.24976
2397.20562	0.25106
2395.27705	0.25230
2393.34849	0.25350
2391.41992	0.25478
2389.49136	0.25616
2387.56279	0.25762
2385.63423	0.25921
2383.70566	0.26099
2381.77710	0.26306
2379.84854	0.26557
2377.91997	0.26839
2375.99141	0.27121
2374.06284	0.27417
2372.13428	0.27762
2370.20571	0.28176
2368.27715	0.28594
2366.34858	0.28956
2364.42002	0.29359
2362.49146	0.29861
2360.56289	0.30192
2358.63433	0.30159
2356.70576	0.30071
2354.77720	0.30121
2352.84863	0.30099
2350.92007	0.29932
2348.99150	0.29799
2347.06294	0.29824
2345.13437	0.30051
2343.20581	0.30422
2341.27725	0.30777
2339.34868	0.31010
2337.42012	0.31103
2335.49155	0.31194
2333.56299	0.31338
2331.63442	0.31493
2329.70586	0.31682
2327.77729	0.31850
2325.84873	0.31903
2323.92017	0.31954
2321.99160	0.32091
2320.06304	0.32206
2318.13447	0.32247
2316.20591	0.32292
2314.27734	0.32383
2312.34878	0.32503
2310.42021	0.32643
2308.49165	0.32794
2306.56309	0.32928
2304.63452	0.33038
2302.70596	0.33158
2300.77739	0.33309
2298.84883	0.33481
2296.92026	0.33647
2294.99170	0.33808
2293.06313	0.33988
2291.13457	0.34170
2289.20601	0.34336
2287.27744	0.34503
2285.34888	0.34671
2283.42031	0.34843
2281.49175	0.35034
2279.56318	0.35245
2277.63462	0.35464
2275.70605	0.35680
2273.77749	0.35897
2271.84893	0.36116
2269.92036	0.36327
2267.99180	0.36533
2266.06323	0.36739
2264.13467	0.36949
2262.20610	0.37172
2260.27754	0.37401
2258.34897	0.37615
2256.42041	0.37816
2254.49185	0.38028
2252.56328	0.38261
2250.63472	0.38488
2248.70615	0.38700
2246.77759	0.38920
2244.84902	0.39150
2242.92046	0.39381
2240.99189	0.39616
2239.06333	0.39844
2237.13477	0.40055
2235.20620	0.40265
2233.27764	0.40489
2231.34907	0.40720
2229.42051	0.40948
2227.49194	0.41174
2225.56338	0.41406
2223.63481	0.41640
2221.70625	0.41876
2219.77769	0.42112
2217.84912	0.42338
2215.92056	0.42557
2213.99199	0.42776
2212.06343	0.42991
2210.13486	0.43192
2208.20630	0.43390
2206.27773	0.43605
2204.34917	0.43824
2202.42061	0.44028
2200.49204	0.44232
2198.56348	0.44455
2196.63491	0.44685
2194.70635	0.44897
2192.77778	0.45085
2190.84922	0.45266
2188.92065	0.45455
2186.99209	0.45649
2185.06353	0.45831
2183.13496	0.46003
2181.20640	0.46172
2179.27783	0.46334
2177.34927	0.46495
2175.42070	0.46662
2173.49214	0.46830
2171.56357	0.46996
2169.63501	0.47150
2167.70645	0.47290
2165.77788	0.47411
2163.84932	0.47516
2161.92075	0.47626
2159.99219	0.47749
2158.06362	0.47862
2156.13506	0.47956
2154.20649	0.48039
2152.27793	0.48116
2150.34937	0.48188
2148.42080	0.48258
2146.49224	0.48318
2144.56367	0.48348
2142.63511	0.48371
2140.70654	0.48415
2138.77798	0.48462
2136.84941	0.48484
2134.92085	0.48485
2132.99229	0.48484
2131.06372	0.48475
2129.13516	0.48447
2127.20659	0.48411
2125.27803	0.48374
2123.34946	0.48334
2121.42090	0.48286
2119.49233	0.48214
2117.56377	0.48135
2115.63521	0.48066
2113.70664	0.47998
2111.77808	0.47916
2109.84951	0.47828
2107.92095	0.47724
2105.99238	0.47599
2104.06382	0.47471
2102.13525	0.47337
2100.20669	0.47194
2098.27812	0.47044
2096.34956	0.46892
2094.42100	0.46732
2092.49243	0.46559
2090.56387	0.46383
2088.63530	0.46207
2086.70674	0.46026
2084.77817	0.45833
2082.84961	0.45630
2080.92104	0.45412
2078.99248	0.45183
2077.06392	0.44965
2075.13535	0.44755
2073.20679	0.44533
2071.27822	0.44305
2069.34966	0.44075
2067.42109	0.43834
2065.49253	0.43596
2063.56396	0.43368
2061.63540	0.43128
2059.70684	0.42863
2057.77827	0.42585
2055.84971	0.42320
2053.92114	0.42066
2051.99258	0.41801
2050.06401	0.41523
2048.13545	0.41244
2046.20688	0.40970
2044.27832	0.40697
2042.34976	0.40417
2040.42119	0.40133
2038.49263	0.39846
2036.56406	0.39564
2034.63550	0.39286
2032.70693	0.38995
2030.77837	0.38702
2028.84980	0.38420
2026.92124	0.38148
2024.99268	0.37859
2023.06411	0.37554
2021.13555	0.37258
2019.20698	0.36983
2017.27842	0.36714
2015.34985	0.36424
2013.42129	0.36120
2011.49272	0.35828
2009.56416	0.35554
2007.63560	0.35282
2005.70703	0.34995
2003.77847	0.34702
2001.84990	0.34423
1999.92134	0.34157
1997.99277	0.33890
1996.06421	0.33620
1994.13564	0.33372
1992.20708	0.33145
1990.27852	0.32894
1988.34995	0.32612
1986.42139	0.32330
1984.49282	0.32066
1982.56426	0.31819
1980.63569	0.31582
1978.70713	0.31345
1976.77856	0.31107
1974.85000	0.30871
1972.92144	0.30640
1970.99287	0.30425
1969.06431	0.30230
1967.13574	0.30042
1965.20718	0.29830
1963.27861	0.29598
1961.35005	0.29380
1959.42148	0.29185
1957.49292	0.28997
1955.56436	0.28808
1953.63579	0.28626
1951.70723	0.28454
1949.77866	0.28285
1947.85010	0.28122
1945.92153	0.27976
1943.99297	0.27842
1942.06440	0.27694
1940.13584	0.27516
1938.20728	0.27337
1936.27871	0.27184
1934.35015	0.27052
1932.42158	0.26928
1930.49302	0.26800
1928.56445	0.26673
1926.63589	0.26562
1924.70732	0.26479
1922.77876	0.26397
1920.85020	0.26287
1918.92163	0.26180
1916.99307	0.26083
1915.06450	0.25972
1913.13594	0.25872
1911.20737	0.25813
1909.27881	0.25765
1907.35024	0.25692
1905.42168	0.25597
1903.49312	0.25519
1901.56455	0.25461
1899.63599	0.25409
1897.70742	0.25366
1895.77886	0.25334
1893.85029	0.25301
1891.92173	0.25270
1889.99316	0.25260
1888.06460	0.25235
1886.13604	0.25185
1884.20747	0.25145
1882.27891	0.25113
1880.35034	0.25089
1878.42178	0.25077
1876.49321	0.25075
1874.56465	0.25076
1872.63608	0.25094
1870.70752	0.25147
1868.77896	0.25234
1866.85039	0.25267
1864.92183	0.25228
1862.99326	0.25203
1861.06470	0.25210
1859.13613	0.25236
1857.20757	0.25265
1855.27900	0.25303
1853.35044	0.25351
1851.42187	0.25413
1849.49331	0.25485
1847.56475	0.25570
1845.63618	0.25681
1843.70762	0.25798
1841.77905	0.25856
1839.85049	0.25874
1837.92192	0.25937
1835.99336	0.26024
1834.06479	0.26105
1832.13623	0.26216
1830.20767	0.26403
1828.27910	0.26580
1826.35054	0.26672
1824.42197	0.26779
1822.49341	0.26890
1820.56484	0.26988
1818.63628	0.27111
1816.70771	0.27272
1814.77915	0.27446
1812.85059	0.27640
1810.92202	0.27862
1808.99346	0.28073
1807.06489	0.28261
1805.13633	0.28443
1803.20776	0.28663
1801.27920	0.28933
1799.35063	0.29236
1797.42207	0.29503
1795.49351	0.29753
1793.56494	0.30056
1791.63638	0.30449
1789.70781	0.30786
1787.77925	0.31010
1785.85068	0.31308
1783.92212	0.31699
1781.99355	0.32112
1780.06499	0.32535
1778.13643	0.32963
1776.20786	0.33382
1774.27930	0.33859
1772.35073	0.34496
1770.42217	0.35134
1768.49360	0.35635
1766.56504	0.36132
1764.63647	0.36661
1762.70791	0.37263
1760.77935	0.38024
1758.85078	0.38725
1756.92222	0.39433
1754.99365	0.40213
1753.06509	0.40925
1751.13652	0.41786
1749.20796	0.42878
1747.27939	0.43930
1745.35083	0.44847
1743.42227	0.45826
1741.49370	0.46912
1739.56514	0.48180
1737.63657	0.49434
1735.70801	0.50543
1733.77944	0.52258
1731.85088	0.54298
1729.92231	0.55872
1727.99375	0.57464
1726.06519	0.59175
1724.13662	0.61067
1722.20806	0.63129
1720.27949	0.65044
1718.35093	0.67306
1716.42236	0.70634
1714.49380	0.73718
1712.56523	0.76144
1710.63667	0.78506
1708.70811	0.81082
1706.77954	0.84052
1704.85098	0.87594
1702.92241	0.90711
1700.99385	0.93739
1699.06528	0.98243
1697.13672	1.02343
1695.20815	1.06483
1693.27959	1.10513
1691.35103	1.13707
1689.42246	1.17329
1687.49390	1.21103
1685.56533	1.24726
1683.63677	1.30363
1681.70820	1.36215
1679.77964	1.39906
1677.85107	1.43409
1675.92251	1.47394
1673.99395	1.52305
1672.06538	1.56657
1670.13682	1.60917
1668.20825	1.66459
1666.27969	1.70788
1664.35112	1.74334
1662.42256	1.78729
1660.49399	1.83669
1658.56543	1.87550
1656.63687	1.90780
1654.70830	1.93795
1652.77974	1.98865
1650.85117	2.03980
1648.92261	2.05994
1646.99404	2.08960
1645.06548	2.12462
1643.13691	2.14754
1641.20835	2.16311
1639.27979	2.17869
1637.35122	2.18876
1635.42266	2.18955
1633.49409	2.18429
1631.56553	2.17445
1629.63696	2.16125
1627.70840	2.13808
1625.77983	2.11224
1623.85127	2.07945
1621.92271	2.03701
1619.99414	1.99748
1618.06558	1.95731
1616.13701	1.89942
1614.20845	1.84126
1612.27988	1.79722
1610.35132	1.75029
1608.42275	1.69878
1606.49419	1.64745
1604.56562	1.59948
1602.63706	1.55240
1600.70850	1.50588
1598.77993	1.46287
1596.85137	1.42219
1594.92280	1.38252
1592.99424	1.34417
1591.06567	1.30885
1589.13711	1.27523
1587.20854	1.24322
1585.27998	1.21314
1583.35142	1.18465
1581.42285	1.15802
1579.49429	1.13484
1577.56572	1.11374
1575.63716	1.08695
1573.70859	1.06212
1571.78003	1.04557
1569.85146	1.02816
1567.92290	1.00788
1565.99434	0.99099
1564.06577	0.97612
1562.13721	0.96351
1560.20864	0.95297
1558.28008	0.93468
1556.35151	0.91700
1554.42295	0.90588
1552.49438	0.89493
1550.56582	0.88425
1548.63726	0.87352
1546.70869	0.86431
1544.78013	0.85674
1542.85156	0.84946
1540.92300	0.84054
1538.99443	0.82774
1537.06587	0.81826
1535.13730	0.81225
1533.20874	0.80508
1531.28018	0.79696
1529.35161	0.79073
1527.42305	0.78522
1525.49448	0.77965
1523.56592	0.77468
1521.63735	0.76944
1519.70879	0.76292
1517.78022	0.75709
1515.85166	0.75137
1513.92310	0.74571
1511.99453	0.74111
1510.06597	0.73762
1508.13740	0.73528
1506.20884	0.73045
1504.28027	0.72354
1502.35171	0.71909
1500.42314	0.71588
1498.49458	0.71282
1496.56602	0.70913
1494.63745	0.70512
1492.70889	0.70195
1490.78032	0.69969
1488.85176	0.69703
1486.92319	0.69323
1484.99463	0.68930
1483.06606	0.68593
1481.13750	0.68297
1479.20894	0.68015
1477.28037	0.67756
1475.35181	0.67520
1473.42324	0.67267
1471.49468	0.66884
1469.56611	0.66457
1467.63755	0.66128
1465.70898	0.65873
1463.78042	0.65621
1461.85186	0.65399
1459.92329	0.65266
1457.99473	0.65173
1456.06616	0.64944
1454.13760	0.64616
1452.20903	0.64368
1450.28047	0.64179
1448.35190	0.64011
1446.42334	0.63818
1444.49478	0.63613
1442.56621	0.63448
1440.63765	0.63326
1438.70908	0.63234
1436.78052	0.63140
1434.85195	0.62978
1432.92339	0.62796
1430.99482	0.62658
1429.06626	0.62519
1427.13770	0.62356
1425.20913	0.62213
1423.28057	0.62075
1421.35200	0.61929
1419.42344	0.61822
1417.49487	0.61706
1415.56631	0.61499
1413.63774	0.61291
1411.70918	0.61126
1409.78062	0.60973
1407.85205	0.60825
1405.92349	0.60710
1403.99492	0.60592
1402.06636	0.60440
1400.13779	0.60304
1398.20923	0.60194
1396.28066	0.60079
1394.35210	0.59936
1392.42354	0.59769
1390.49497	0.59617
1388.56641	0.59503
1386.63784	0.59394
1384.70928	0.59248
1382.78071	0.59099
1380.85215	0.58973
1378.92358	0.58871
1376.99502	0.58787
1375.06646	0.58714
1373.13789	0.58616
1371.20933	0.58490
1369.28076	0.58376
1367.35220	0.58272
1365.42363	0.58174
1363.49507	0.58099
1361.56650	0.58018
1359.63794	0.57909
1357.70937	0.57806
1355.78081	0.57714
1353.85225	0.57613
1351.92368	0.57503
1349.99512	0.57398
1348.06655	0.57300
1346.13799	0.57210
1344.20942	0.57129
1342.28086	0.57065
1340.35229	0.57018
1338.42373	0.56937
1336.49517	0.56801
1334.56660	0.56671
1332.63804	0.56577
1330.70947	0.56500
1328.78091	0.56419
1326.85234	0.56333
1324.92378	0.56253
1322.99521	0.56178
1321.06665	0.56107
1319.13809	0.56033
1317.20952	0.55939
1315.28096	0.55836
1313.35239	0.55745
1311.42383	0.55663
1309.49526	0.55586
1307.56670	0.55514
1305.63813	0.55442
1303.70957	0.55368
1301.78101	0.55297
1299.85244	0.55224
1297.92388	0.55143
1295.99531	0.55054
1294.06675	0.54963
1292.13818	0.54871
1290.20962	0.54790
1288.28105	0.54732
1286.35249	0.54679
1284.42393	0.54627
1282.49536	0.54595
1280.56680	0.54566
1278.63823	0.54520
1276.70967	0.54461
1274.78110	0.54405
1272.85254	0.54367
1270.92397	0.54332
1268.99541	0.54285
1267.06685	0.54236
1265.13828	0.54184
1263.20972	0.54129
1261.28115	0.54093
1259.35259	0.54081
1257.42402	0.54063
1255.49546	0.54025
1253.56689	0.53988
1251.63833	0.53978
1249.70977	0.53974
1247.78120	0.53953
1245.85264	0.53917
1243.92407	0.53881
1241.99551	0.53852
1240.06694	0.53825
1238.13838	0.53783
1236.20981	0.53724
1234.28125	0.53668
1232.35269	0.53613
1230.42412	0.53543
1228.49556	0.53476
1226.56699	0.53417
1224.63843	0.53352
1222.70986	0.53282
1220.78130	0.53219
1218.85273	0.53170
1216.92417	0.53114
1214.99561	0.53033
1213.06704	0.52948
1211.13848	0.52891
1209.20991	0.52842
1207.28135	0.52774
1205.35278	0.52697
1203.42422	0.52626
1201.49565	0.52558
1199.56709	0.52493
1197.63853	0.52428
1195.70996	0.52374
1193.78140	0.52336
1191.85283	0.52306
1189.92427	0.52271
1187.99570	0.52229
1186.06714	0.52199
1184.13857	0.52184
1182.21001	0.52167
1180.28145	0.52151
1178.35288	0.52154
1176.42432	0.52191
1174.49575	0.52253
1172.56719	0.52323
1170.63862	0.52365
1168.71006	0.52364
1166.78149	0.52366
1164.85293	0.52400
1162.92437	0.52438
1160.99580	0.52450
1159.06724	0.52421
1157.13867	0.52352
1155.21011	0.52265
1153.28154	0.52158
1151.35298	0.52016
1149.42441	0.51840
1147.49585	0.51639
1145.56729	0.51425
1143.63872	0.51197
1141.71016	0.50949
1139.78159	0.50697
1137.85303	0.50470
1135.92446	0.50260
1133.99590	0.50051
1132.06733	0.49843
1130.13877	0.49653
1128.21021	0.49487
1126.28164	0.49344
1124.35308	0.49228
1122.42451	0.49150
1120.49595	0.49095
1118.56738	0.49036
1116.63882	0.48985
1114.71025	0.48962
1112.78169	0.48973
1110.85312	0.49010
1108.92456	0.49055
1106.99600	0.49123
1105.06743	0.49236
1103.13887	0.49400
1101.21030	0.49599
1099.28174	0.49825
1097.35317	0.50099
1095.42461	0.50416
1093.49604	0.50766
1091.56748	0.51176
1089.63892	0.51653
1087.71035	0.52180
1085.78179	0.52768
1083.85322	0.53428
1081.92466	0.54101
1079.99609	0.54683
1078.06753	0.55072
1076.13896	0.55212
1074.21040	0.55059
1072.28184	0.54628
1070.35327	0.54031
1068.42471	0.53387
1066.49614	0.52761
1064.56758	0.52171
1062.63901	0.51622
1060.71045	0.51107
1058.78188	0.50626
1056.85332	0.50221
1054.92476	0.49908
1052.99619	0.49638
1051.06763	0.49388
1049.13906	0.49181
1047.21050	0.49018
1045.28193	0.48869
1043.35337	0.48729
1041.42480	0.48605
1039.49624	0.48492
1037.56768	0.48415
1035.63911	0.48406
1033.71055	0.48446
1031.78198	0.48482
1029.85342	0.48500
1027.92485	0.48521
1025.99629	0.48548
1024.06772	0.48579
1022.13916	0.48630
1020.21060	0.48706
1018.28203	0.48817
1016.35347	0.48950
1014.42490	0.49071
1012.49634	0.49174
1010.56777	0.49295
1008.63921	0.49461
1006.71064	0.49679
1004.78208	0.49919
1002.85352	0.50157
1000.92495	0.50412
998.99639	0.50710
997.06782	0.51047
995.13926	0.51411
993.21069	0.51787
991.28213	0.52124
989.35356	0.52378
987.42500	0.52554
985.49644	0.52664
983.56787	0.52746
981.63931	0.52858
979.71074	0.53020
977.78218	0.53229
975.85361	0.53497
973.92505	0.53817
971.99648	0.54153
970.06792	0.54495
968.13936	0.54877
966.21079	0.55294
964.28223	0.55728
962.35366	0.56199
960.42510	0.56728
958.49653	0.57313
956.56797	0.57914
954.63940	0.58517
952.71084	0.59132
950.78228	0.59760
948.85371	0.60395
946.92515	0.61030
944.99658	0.61665
943.06802	0.62309
941.13945	0.62948
939.21089	0.63553
937.28232	0.64104
935.35376	0.64631
933.42520	0.65176
931.49663	0.65742
929.56807	0.66293
927.63950	0.66838
925.71094	0.67428
923.78237	0.68070
921.85381	0.68721
919.92524	0.69384
917.99668	0.70158
916.06812	0.71041
914.13955	0.71889
912.21099	0.72662
910.28242	0.73431
908.35386	0.74260
906.42529	0.75151
904.49673	0.76033
902.56816	0.76917
900.63960	0.77893
898.71104	0.78863
896.78247	0.79687
894.85391	0.80551
892.92534	0.81689
890.99678	0.82905
889.06821	0.83968
887.13965	0.84975
885.21108	0.86025
883.28252	0.87145
881.35396	0.88379
879.42539	0.89677
877.49683	0.90869
875.56826	0.91943
873.63970	0.93106
871.71113	0.94372
869.78257	0.95517
867.85400	0.96498
865.92544	0.97542
863.99687	0.98793
862.06831	1.00079
860.13975	1.01175
858.21118	1.02240
856.28262	1.03407
854.35405	1.04489
852.42549	1.05480
850.49692	1.06522
848.56836	1.07707
846.63979	1.09001
844.71123	1.10241
842.78267	1.11461
840.85410	1.12733
838.92554	1.13909
836.99697	1.15020
835.06841	1.16175
833.13984	1.17508
831.21128	1.19228
829.28271	1.20840
827.35415	1.21900
825.42559	1.22898
823.49702	1.23906
821.56846	1.24419
819.63989	1.24558
817.71133	1.24997
815.78276	1.26146
813.85420	1.27833
811.92563	1.28682
809.99707	1.27732
808.06851	1.27686
806.13994	1.30506
804.21138	1.33708
802.28281	1.35457
800.35425	1.36854
798.42568	1.38663
796.49712	1.40583
794.56855	1.42790
792.63999	1.46885
790.71143	1.52286
788.78286	1.54778
786.85430	1.53252
784.92573	1.52213
782.99717	1.54334
781.06860	1.56266
779.14004	1.49195
777.21147	1.39452
775.28291	1.37810
773.35435	1.48705
771.42578	1.77708
769.49722	2.05445
767.56865	1.80691
765.64009	1.59904
763.71152	1.49793
761.78296	1.50099
759.85439	1.57250
757.92583	1.61566
755.99727	1.62748
754.06870	1.77230
752.14014	1.64443
750.21157	1.29597
748.28301	1.15600
746.35444	1.17803
744.42588	1.26405
742.49731	1.30730
740.56875	1.41871
738.64019	1.75892
736.71162	1.27022
734.78306	0.94429
732.85449	0.86523
730.92593	0.87273
728.99736	0.96245
727.06880	4.36241
725.14023	4.35084
723.21167	0.84906
721.28311	0.51139
719.35454	0.53969
717.42598	0.60034
715.49741	0.46933
713.56885	0.38293
711.64028	0.32179
709.71172	0.28034
707.78315	0.27733
705.85459	0.19466
703.92603	0.09806
701.99746	0.05543
700.06890	0.08492
698.14033	0.14664
696.21177	0.13196
694.28320	0.11640
692.35464	0.25556
690.42607	0.32763
688.49751	0.25699
686.56895	0.16082
684.64038	0.17077
682.71182	0.27519
680.78325	0.42912
678.85469	0.47357
676.92612	0.42623
674.99756	0.51721
673.06899	0.46832
671.14043	0.26446
669.21187	0.14989
667.28330	0.09635
665.35474	0.09391
663.42617	0.13038
661.49761	0.16188
659.56904	0.16716
657.64048	0.15075
655.71191	0.13198
653.78335	0.11868
651.85479	0.11030
649.92622	0.18098
647.99766	0.53868
646.06909	0.53106
644.14053	0.31189
642.21196	0.31770
640.28340	0.43690
638.35483	0.33788
636.42627	0.20567
634.49771	0.19726
632.56914	0.23217
630.64058	0.17391
628.71201	0.13496
626.78345	0.16865
624.85488	0.15397
622.92632	0.16041
620.99775	0.24668
619.06919	0.35840
617.14062	0.43545
615.21206	0.32329
613.28350	0.16136
611.35493	0.08947
609.42637	0.13816
607.49780	0.28141
605.56924	0.40079
603.64067	0.40136
601.71211	0.33073
599.78354	0.22152
597.85498	0.13307
595.92642	0.13273
593.99785	0.19571
592.06929	0.22648
590.14072	0.20173
588.21216	0.24338
586.28359	0.39303
584.35503	0.41470
582.42646	0.26029
580.49790	0.15054
578.56934	0.17029
576.64077	0.25562
574.71221	0.32771
572.78364	0.34094
570.85508	0.25843
568.92651	0.17635
566.99795	0.14931
565.06938	0.13489
563.14082	0.16254
561.21226	0.27619
559.28369	0.47214
557.35513	0.51297
555.42656	0.39356
553.49800	0.37768
551.56943	0.35822
549.64087	0.25213
547.71230	0.15301
545.78374	0.11914
543.85518	0.11182
541.92661	0.11553
539.99805	0.14872
538.06948	0.15885
536.14092	0.11499
534.21235	0.09173
532.28379	0.11738
530.35522	0.12047
528.42666	0.08505
526.49810	0.10141
524.56953	0.16780
522.64097	0.21680
520.71240	0.25922
518.78384	0.38267
516.85527	0.39298
514.92671	0.27071
512.99814	0.25885
511.06958	0.22759
509.14102	0.16401
507.21245	0.14065
505.28389	0.18399
503.35532	0.27784
501.42676	0.31847
499.49819	0.22049
