3997.91411	0.12456
3995.98555	0.12479
3994.05698	0.12520
3992.12842	0.12530
3990.19985	0.12543
3988.27129	0.12565
3986.34272	0.12567
3984.41416	0.12595
3982.48560	0.12648
3980.55703	0.12656
3978.62847	0.12631
3976.69990	0.12648
3974.77134	0.12708
3972.84277	0.12761
3970.91421	0.12766
3968.98564	0.12742
3967.05708	0.12733
3965.12852	0.12758
3963.19995	0.12794
3961.27139	0.12818
3959.34282	0.12836
3957.41426	0.12852
3955.48569	0.12858
3953.55713	0.12878
3951.62856	0.12942
3949.70000	0.13014
3947.77144	0.13036
3945.84287	0.13015
3943.91431	0.13005
3941.98574	0.13002
3940.05718	0.12956
3938.12861	0.12888
3936.20005	0.12844
3934.27148	0.12875
3932.34292	0.12993
3930.41436	0.13074
3928.48579	0.13022
3926.55723	0.12930
3924.62866	0.12908
3922.70010	0.12911
3920.77153	0.12894
3918.84297	0.12909
3916.91440	0.12964
3914.98584	0.12935
3913.05728	0.12781
3911.12871	0.12649
3909.20015	0.12636
3907.27158	0.12756
3905.34302	0.12998
3903.41445	0.13241
3901.48589	0.13331
3899.55732	0.13293
3897.62876	0.13134
3895.70020	0.12937
3893.77163	0.12904
3891.84307	0.13030
3889.91450	0.13044
3887.98594	0.12923
3886.05737	0.12950
3884.12881	0.13084
3882.20024	0.13137
3880.27168	0.13148
3878.34312	0.13044
3876.41455	0.12926
3874.48599	0.13026
3872.55742	0.13246
3870.62886	0.13406
3868.70029	0.13475
3866.77173	0.13440
3864.84316	0.13464
3862.91460	0.13515
3860.98604	0.13394
3859.05747	0.13272
3857.12891	0.13330
3855.20034	0.13563
3853.27178	0.13938
3851.34321	0.14045
3849.41465	0.13705
3847.48608	0.13414
3845.55752	0.13343
3843.62896	0.13501
3841.70039	0.13797
3839.77183	0.14100
3837.84326	0.14330
3835.91470	0.14341
3833.98613	0.14195
3832.05757	0.14079
3830.12900	0.14025
3828.20044	0.14044
3826.27187	0.14135
3824.34331	0.14250
3822.41475	0.14463
3820.48618	0.14840
3818.55762	0.15025
3816.62905	0.14937
3814.70049	0.14767
3812.77192	0.14572
3810.84336	0.14493
3808.91479	0.14609
3806.98623	0.14906
3805.05767	0.15211
3803.12910	0.15455
3801.20054	0.15748
3799.27197	0.15857
3797.34341	0.15745
3795.41484	0.15651
3793.48628	0.15548
3791.55771	0.15493
3789.62915	0.15579
3787.70059	0.15751
3785.77202	0.15952
3783.84346	0.16142
3781.91489	0.16286
3779.98633	0.16463
3778.05776	0.16659
3776.12920	0.16728
3774.20063	0.16758
3772.27207	0.16925
3770.34351	0.17279
3768.41494	0.17669
3766.48638	0.17885
3764.55781	0.18012
3762.62925	0.18161
3760.70068	0.18415
3758.77212	0.18785
3756.84355	0.19084
3754.91499	0.19298
3752.98643	0.19685
3751.05786	0.20364
3749.12930	0.20951
3747.20073	0.21081
3745.27217	0.21170
3743.34360	0.21437
3741.41504	0.21683
3739.48647	0.21870
3737.55791	0.22205
3735.62935	0.22898
3733.70078	0.23754
3731.77222	0.24145
3729.84365	0.24247
3727.91509	0.24515
3725.98652	0.25079
3724.05796	0.25790
3722.12939	0.26453
3720.20083	0.27040
3718.27227	0.27570
3716.34370	0.28154
3714.41514	0.28908
3712.48657	0.30029
3710.55801	0.31630
3708.62944	0.33044
3706.70088	0.33954
3704.77231	0.34888
3702.84375	0.36167
3700.91519	0.37871
3698.98662	0.39670
3697.05806	0.41358
3695.12949	0.43169
3693.20093	0.45149
3691.27236	0.47442
3689.34380	0.50450
3687.41523	0.53884
3685.48667	0.56705
3683.55811	0.59157
3681.62954	0.61883
3679.70098	0.65053
3677.77241	0.68500
3675.84385	0.72675
3673.91528	0.78090
3671.98672	0.82324
3670.05815	0.86150
3668.12959	0.91355
3666.20103	0.95922
3664.27246	0.99737
3662.34390	1.03969
3660.41533	1.08670
3658.48677	1.13401
3656.55820	1.18437
3654.62964	1.23924
3652.70107	1.28531
3650.77251	1.32724
3648.84395	1.38555
3646.91538	1.45341
3644.98682	1.50056
3643.05825	1.53703
3641.12969	1.57589
3639.20112	1.61984
3637.27256	1.66466
3635.34399	1.70801
3633.41543	1.75095
3631.48687	1.79215
3629.55830	1.83525
3627.62974	1.89075
3625.70117	1.94086
3623.77261	1.97346
3621.84404	2.00475
3619.91548	2.04273
3617.98691	2.08991
3616.05835	2.13467
3614.12979	2.17170
3612.20122	2.21007
3610.27266	2.24888
3608.34409	2.28869
3606.41553	2.33069
3604.48696	2.36959
3602.55840	2.40530
3600.62983	2.44390
3598.70127	2.48476
3596.77271	2.52429
3594.84414	2.56488
3592.91558	2.60708
3590.98701	2.64614
3589.05845	2.68185
3587.12988	2.72451
3585.20132	2.77288
3583.27275	2.81513
3581.34419	2.85317
3579.41562	2.89322
3577.48706	2.93669
3575.55850	2.98096
3573.62993	3.02460
3571.70137	3.06551
3569.77280	3.10511
3567.84424	3.14908
3565.91567	3.20357
3563.98711	3.25506
3562.05854	3.29460
3560.12998	3.33303
3558.20142	3.37527
3556.27285	3.42016
3554.34429	3.46440
3552.41572	3.51025
3550.48716	3.56063
3548.55859	3.61087
3546.63003	3.65669
3544.70146	3.70288
3542.77290	3.75094
3540.84434	3.79785
3538.91577	3.84482
3536.98721	3.89006
3535.05864	3.93487
3533.13008	3.98252
3531.20151	4.03284
3529.27295	4.08373
3527.34438	4.13341
3525.41582	4.18023
3523.48726	4.22670
3521.55869	4.27613
3519.63013	4.32589
3517.70156	4.37663
3515.77300	4.42595
3513.84443	4.46824
3511.91587	4.50923
3509.98730	4.55945
3508.05874	4.61511
3506.13018	4.66382
3504.20161	4.70505
3502.27305	4.74847
3500.34448	4.79881
3498.41592	4.85120
3496.48735	4.90349
3494.55879	4.95457
3492.63022	5.00228
3490.70166	5.04911
3488.77310	5.10199
3486.84453	5.16247
3484.91597	5.21689
3482.98740	5.25339
3481.05884	5.28361
3479.13027	5.32539
3477.20171	5.37606
3475.27314	5.42559
3473.34458	5.47872
3471.41602	5.53362
3469.48745	5.57827
3467.55889	5.61835
3465.63032	5.66458
3463.70176	5.72020
3461.77319	5.77600
3459.84463	5.82426
3457.91606	5.87187
3455.98750	5.92157
3454.05894	5.96577
3452.13037	6.01089
3450.20181	6.07055
3448.27324	6.12284
3446.34468	6.15461
3444.41611	6.19608
3442.48755	6.26618
3440.55898	6.34417
3438.63042	6.39652
3436.70186	6.41661
3434.77329	6.43941
3432.84473	6.49503
3430.91616	6.57064
3428.98760	6.64214
3427.05903	6.69445
3425.13047	6.73594
3423.20190	6.77521
3421.27334	6.81579
3419.34478	6.86915
3417.41621	6.91042
3415.48765	6.92066
3413.55908	6.95420
3411.63052	7.02688
3409.70195	7.09709
3407.77339	7.17657
3405.84482	7.24754
3403.91626	7.28500
3401.98770	7.31219
3400.05913	7.32823
3398.13057	7.31590
3396.20200	7.30497
3394.27344	7.34240
3392.34487	7.39066
3390.41631	7.42167
3388.48774	7.48263
3386.55918	7.59533
3384.63062	7.67844
3382.70205	7.69677
3380.77349	7.70288
3378.84492	7.70943
3376.91636	7.72216
3374.98779	7.71002
3373.05923	7.69891
3371.13066	7.73808
3369.20210	7.79530
3367.27354	7.85776
3365.34497	7.97400
3363.41641	8.08997
3361.48784	8.07252
3359.55928	7.97976
3357.63071	7.94934
3355.70215	7.99160
3353.77358	8.04060
3351.84502	8.06645
3349.91646	8.06814
3347.98789	8.07669
3346.05933	8.07027
3344.13076	8.05784
3342.20220	8.03829
3340.27363	7.96905
3338.34507	7.95791
3336.41650	8.00136
3334.48794	8.03129
3332.55937	8.08131
3330.63081	8.12497
3328.70225	8.13624
3326.77368	8.18025
3324.84512	8.25472
3322.91655	8.29880
3320.98799	8.35530
3319.05942	8.48324
3317.13086	8.56476
3315.20229	8.36789
3313.27373	8.10083
3311.34517	8.00255
3309.41660	8.02954
3307.48804	8.06816
3305.55947	8.06038
3303.63091	8.08316
3301.70234	8.17989
3299.77378	8.24931
3297.84521	8.23008
3295.91665	8.22731
3293.98809	8.26607
3292.05952	8.26300
3290.13096	8.19818
3288.20239	8.18324
3286.27383	8.26160
3284.34526	8.31918
3282.41670	8.36018
3280.48813	8.34664
3278.55957	8.25640
3276.63101	8.20631
3274.70244	8.15775
3272.77388	8.05403
3270.84531	7.99587
3268.91675	8.04393
3266.98818	8.13431
3265.05962	8.16227
3263.13105	8.09769
3261.20249	8.07686
3259.27393	8.09806
3257.34536	8.07605
3255.41680	8.08641
3253.48823	8.14437
3251.55967	8.19917
3249.63110	8.20914
3247.70254	8.18183
3245.77397	8.21299
3243.84541	8.34734
3241.91685	8.51939
3239.98828	8.60017
3238.05972	8.46486
3236.13115	8.23878
3234.20259	8.18052
3232.27402	8.28852
3230.34546	8.34152
3228.41689	8.29081
3226.48833	8.24486
3224.55977	8.17968
3222.63120	8.07980
3220.70264	8.04022
3218.77407	8.07246
3216.84551	8.07437
3214.91694	8.05331
3212.98838	8.03787
3211.05981	7.96748
3209.13125	7.88252
3207.20269	7.84588
3205.27412	7.83328
3203.34556	7.82189
3201.41699	7.78358
3199.48843	7.72861
3197.55986	7.73799
3195.63130	7.77020
3193.70273	7.71614
3191.77417	7.62372
3189.84561	7.59706
3187.91704	7.60466
3185.98848	7.55173
3184.05991	7.48805
3182.13135	7.44768
3180.20278	7.36982
3178.27422	7.26716
3176.34565	7.20425
3174.41709	7.18574
3172.48853	7.15457
3170.55996	7.09947
3168.63140	7.07263
3166.70283	7.05391
3164.77427	6.96769
3162.84570	6.85520
3160.91714	6.78570
3158.98857	6.74515
3157.06001	6.70907
3155.13145	6.65781
3153.20288	6.57916
3151.27432	6.50141
3149.34575	6.44847
3147.41719	6.39644
3145.48862	6.31578
3143.56006	6.23192
3141.63149	6.17763
3139.70293	6.12609
3137.77437	6.04849
3135.84580	5.96295
3133.91724	5.89185
3131.98867	5.82898
3130.06011	5.75678
3128.13154	5.68257
3126.20298	5.61423
3124.27441	5.54085
3122.34585	5.46392
3120.41729	5.39529
3118.48872	5.33079
3116.56016	5.25674
3114.63159	5.17660
3112.70303	5.10405
3110.77446	5.03942
3108.84590	4.97715
3106.91733	4.91426
3104.98877	4.84905
3103.06021	4.78247
3101.13164	4.71539
3099.20308	4.65039
3097.27451	4.58841
3095.34595	4.52436
3093.41738	4.45709
3091.48882	4.38977
3089.56025	4.32179
3087.63169	4.25599
3085.70312	4.19507
3083.77456	4.13499
3081.84600	4.07367
3079.91743	4.01224
3077.98887	3.95368
3076.06030	3.89689
3074.13174	3.83708
3072.20317	3.77550
3070.27461	3.71483
3068.34604	3.65613
3066.41748	3.60033
3064.48892	3.54622
3062.56035	3.49110
3060.63179	3.43457
3058.70322	3.37890
3056.77466	3.32543
3054.84609	3.27311
3052.91753	3.22072
3050.98896	3.16872
3049.06040	3.11725
3047.13184	3.06625
3045.20327	3.01592
3043.27471	2.96601
3041.34614	2.91686
3039.41758	2.86857
3037.48901	2.82080
3035.56045	2.77406
3033.63188	2.72886
3031.70332	2.68463
3029.77476	2.64053
3027.84619	2.59597
3025.91763	2.55080
3023.98906	2.50596
3022.06050	2.46268
3020.13193	2.42115
3018.20337	2.38061
3016.27480	2.34031
3014.34624	2.30042
3012.41768	2.26130
3010.48911	2.22225
3008.56055	2.18363
3006.63198	2.14703
3004.70342	2.11148
3002.77485	2.07527
3000.84629	2.03984
2998.91772	2.00614
2996.98916	1.97275
2995.06060	1.93958
2993.13203	1.90740
2991.20347	1.87574
2989.27490	1.84465
2987.34634	1.81431
2985.41777	1.78408
2983.48921	1.75450
2981.56064	1.72630
2979.63208	1.69892
2977.70352	1.67196
2975.77495	1.64544
2973.84639	1.61898
2971.91782	1.59276
2969.98926	1.56708
2968.06069	1.54127
2966.13213	1.51503
2964.20356	1.48956
2962.27500	1.46559
2960.34644	1.44173
2958.41787	1.41709
2956.48931	1.39266
2954.56074	1.36887
2952.63218	1.34494
2950.70361	1.32075
2948.77505	1.29687
2946.84648	1.27370
2944.91792	1.25141
2942.98936	1.22981
2941.06079	1.20837
2939.13223	1.18659
2937.20366	1.16479
2935.27510	1.14376
2933.34653	1.12302
2931.41797	1.10204
2929.48940	1.08130
2927.56084	1.06090
2925.63228	1.04101
2923.70371	1.02245
2921.77515	1.00517
2919.84658	0.98827
2917.91802	0.97168
2915.98945	0.95597
2914.06089	0.94085
2912.13232	0.92585
2910.20376	0.91129
2908.27520	0.89700
2906.34663	0.88252
2904.41807	0.86795
2902.48950	0.85387
2900.56094	0.84043
2898.63237	0.82709
2896.70381	0.81378
2894.77524	0.80089
2892.84668	0.78855
2890.91812	0.77662
2888.98955	0.76511
2887.06099	0.75409
2885.13242	0.74320
2883.20386	0.73215
2881.27529	0.72141
2879.34673	0.71129
2877.41816	0.70132
2875.48960	0.69125
2873.56104	0.68099
2871.63247	0.67021
2869.70391	0.65886
2867.77534	0.64696
2865.84678	0.63472
2863.91821	0.62265
2861.98965	0.61099
2860.06108	0.59959
2858.13252	0.58821
2856.20396	0.57719
2854.27539	0.56707
2852.34683	0.55777
2850.41826	0.54931
2848.48970	0.54182
2846.56113	0.53500
2844.63257	0.52858
2842.70400	0.52264
2840.77544	0.51714
2838.84687	0.51155
2836.91831	0.50538
2834.98975	0.49895
2833.06118	0.49279
2831.13262	0.48675
2829.20405	0.48042
2827.27549	0.47403
2825.34692	0.46788
2823.41836	0.46189
2821.48979	0.45598
2819.56123	0.45010
2817.63267	0.44422
2815.70410	0.43835
2813.77554	0.43255
2811.84697	0.42688
2809.91841	0.42127
2807.98984	0.41576
2806.06128	0.41032
2804.13271	0.40486
2802.20415	0.39954
2800.27559	0.39459
2798.34702	0.38989
2796.41846	0.38508
2794.48989	0.38020
2792.56133	0.37558
2790.63276	0.37108
2788.70420	0.36642
2786.77563	0.36180
2784.84707	0.35742
2782.91851	0.35321
2780.98994	0.34902
2779.06138	0.34475
2777.13281	0.34050
2775.20425	0.33654
2773.27568	0.33284
2771.34712	0.32915
2769.41855	0.32532
2767.48999	0.32160
2765.56143	0.31810
2763.63286	0.31464
2761.70430	0.31113
2759.77573	0.30775
2757.84717	0.30451
2755.91860	0.30116
2753.99004	0.29772
2752.06147	0.29455
2750.13291	0.29166
2748.20435	0.28870
2746.27578	0.28568
2744.34722	0.28281
2742.41865	0.28003
2740.49009	0.27725
2738.56152	0.27450
2736.63296	0.27186
2734.70439	0.26935
2732.77583	0.26690
2730.84727	0.26446
2728.91870	0.26202
2726.99014	0.25965
2725.06157	0.25739
2723.13301	0.25518
2721.20444	0.25294
2719.27588	0.25071
2717.34731	0.24868
2715.41875	0.24679
2713.49019	0.24482
2711.56162	0.24281
2709.63306	0.24094
2707.70449	0.23924
2705.77593	0.23758
2703.84736	0.23593
2701.91880	0.23440
2699.99023	0.23289
2698.06167	0.23127
2696.13311	0.22975
2694.20454	0.22839
2692.27598	0.22698
2690.34741	0.22543
2688.41885	0.22399
2686.49028	0.22275
2684.56172	0.22157
2682.63315	0.22040
2680.70459	0.21915
2678.77603	0.21789
2676.84746	0.21676
2674.91890	0.21564
2672.99033	0.21448
2671.06177	0.21340
2669.13320	0.21237
2667.20464	0.21136
2665.27607	0.21035
2663.34751	0.20937
2661.41895	0.20842
2659.49038	0.20758
2657.56182	0.20682
2655.63325	0.20604
2653.70469	0.20524
2651.77612	0.20448
2649.84756	0.20381
2647.91899	0.20323
2645.99043	0.20269
2644.06187	0.20210
2642.13330	0.20144
2640.20474	0.20079
2638.27617	0.20011
2636.34761	0.19943
2634.41904	0.19894
2632.49048	0.19854
2630.56191	0.19804
2628.63335	0.19754
2626.70479	0.19715
2624.77622	0.19682
2622.84766	0.19665
2620.91909	0.19660
2618.99053	0.19639
2617.06196	0.19595
2615.13340	0.19552
2613.20483	0.19527
2611.27627	0.19512
2609.34771	0.19491
2607.41914	0.19471
2605.49058	0.19456
2603.56201	0.19439
2601.63345	0.19433
2599.70488	0.19442
2597.77632	0.19455
2595.84775	0.19459
2593.91919	0.19459
2591.99062	0.19474
2590.06206	0.19491
2588.13350	0.19490
2586.20493	0.19485
2584.27637	0.19489
2582.34780	0.19504
2580.41924	0.19538
2578.49067	0.19577
2576.56211	0.19599
2574.63354	0.19611
2572.70498	0.19629
2570.77642	0.19660
2568.84785	0.19694
2566.91929	0.19734
2564.99072	0.19786
2563.06216	0.19825
2561.13359	0.19840
2559.20503	0.19853
2557.27646	0.19887
2555.34790	0.19947
2553.41934	0.20016
2551.49077	0.20072
2549.56221	0.20125
2547.63364	0.20185
2545.70508	0.20247
2543.77651	0.20304
2541.84795	0.20342
2539.91938	0.20372
2537.99082	0.20416
2536.06226	0.20480
2534.13369	0.20555
2532.20513	0.20622
2530.27656	0.20680
2528.34800	0.20746
2526.41943	0.20819
2524.49087	0.20884
2522.56230	0.20950
2520.63374	0.21015
2518.70518	0.21083
2516.77661	0.21167
2514.84805	0.21257
2512.91948	0.21334
2510.99092	0.21403
2509.06235	0.21477
2507.13379	0.21558
2505.20522	0.21637
2503.27666	0.21709
2501.34810	0.21789
2499.41953	0.21885
2497.49097	0.21973
2495.56240	0.22039
2493.63384	0.22106
2491.70527	0.22189
2489.77671	0.22286
2487.84814	0.22386
2485.91958	0.22482
2483.99102	0.22573
2482.06245	0.22661
2480.13389	0.22744
2478.20532	0.22821
2476.27676	0.22895
2474.34819	0.22969
2472.41963	0.23051
2470.49106	0.23141
2468.56250	0.23237
2466.63394	0.23329
2464.70537	0.23415
2462.77681	0.23508
2460.84824	0.23602
2458.91968	0.23684
2456.99111	0.23767
2455.06255	0.23863
2453.13398	0.23963
2451.20542	0.24061
2449.27686	0.24162
2447.34829	0.24263
2445.41973	0.24362
2443.49116	0.24459
2441.56260	0.24555
2439.63403	0.24646
2437.70547	0.24728
2435.77690	0.24813
2433.84834	0.24910
2431.91978	0.25010
2429.99121	0.25117
2428.06265	0.25234
2426.13408	0.25341
2424.20552	0.25432
2422.27695	0.25535
2420.34839	0.25650
2418.41982	0.25760
2416.49126	0.25868
2414.56270	0.25976
2412.63413	0.26090
2410.70557	0.26204
2408.77700	0.26312
2406.84844	0.26427
2404.91987	0.26544
2402.99131	0.26656
2401.06274	0.26772
2399.13418	0.26898
2397.20562	0.27026
2395.27705	0.27152
2393.34849	0.27271
2391.41992	0.27392
2389.49136	0.27527
2387.56279	0.27680
2385.63423	0.27868
2383.70566	0.28103
2381.77710	0.28375
2379.84854	0.28667
2377.91997	0.28973
2375.99141	0.29316
2374.06284	0.29738
2372.13428	0.30233
2370.20571	0.30737
2368.27715	0.31227
2366.34858	0.31691
2364.42002	0.32097
2362.49146	0.32518
2360.56289	0.32902
2358.63433	0.33045
2356.70576	0.32997
2354.77720	0.32864
2352.84863	0.32632
2350.92007	0.32348
2348.99150	0.32181
2347.06294	0.32242
2345.13437	0.32570
2343.20581	0.33063
2341.27725	0.33422
2339.34868	0.33549
2337.42012	0.33590
2335.49155	0.33656
2333.56299	0.33761
2331.63442	0.33933
2329.70586	0.34144
2327.77729	0.34270
2325.84873	0.34276
2323.92017	0.34280
2321.99160	0.34322
2320.06304	0.34360
2318.13447	0.34374
2316.20591	0.34388
2314.27734	0.34454
2312.34878	0.34566
2310.42021	0.34672
2308.49165	0.34755
2306.56309	0.34828
2304.63452	0.34904
2302.70596	0.34990
2300.77739	0.35087
2298.84883	0.35209
2296.92026	0.35355
2294.99170	0.35500
2293.06313	0.35643
2291.13457	0.35792
2289.20601	0.35953
2287.27744	0.36113
2285.34888	0.36261
2283.42031	0.36415
2281.49175	0.36599
2279.56318	0.36802
2277.63462	0.37010
2275.70605	0.37218
2273.77749	0.37420
2271.84893	0.37616
2269.92036	0.37818
2267.99180	0.38030
2266.06323	0.38248
2264.13467	0.38459
2262.20610	0.38665
2260.27754	0.38869
2258.34897	0.39069
2256.42041	0.39274
2254.49185	0.39488
2252.56328	0.39702
2250.63472	0.39919
2248.70615	0.40141
2246.77759	0.40356
2244.84902	0.40567
2242.92046	0.40780
2240.99189	0.40994
2239.06333	0.41215
2237.13477	0.41434
2235.20620	0.41642
2233.27764	0.41855
2231.34907	0.42083
2229.42051	0.42315
2227.49194	0.42540
2225.56338	0.42759
2223.63481	0.42974
2221.70625	0.43197
2219.77769	0.43427
2217.84912	0.43652
2215.92056	0.43861
2213.99199	0.44061
2212.06343	0.44267
2210.13486	0.44477
2208.20630	0.44688
2206.27773	0.44897
2204.34917	0.45102
2202.42061	0.45303
2200.49204	0.45506
2198.56348	0.45713
2196.63491	0.45916
2194.70635	0.46111
2192.77778	0.46298
2190.84922	0.46480
2188.92065	0.46663
2186.99209	0.46850
2185.06353	0.47037
2183.13496	0.47209
2181.20640	0.47358
2179.27783	0.47497
2177.34927	0.47646
2175.42070	0.47813
2173.49214	0.47983
2171.56357	0.48139
2169.63501	0.48277
2167.70645	0.48396
2165.77788	0.48511
2163.84932	0.48633
2161.92075	0.48755
2159.99219	0.48864
2158.06362	0.48955
2156.13506	0.49045
2154.20649	0.49139
2152.27793	0.49218
2150.34937	0.49281
2148.42080	0.49345
2146.49224	0.49405
2144.56367	0.49448
2142.63511	0.49470
2140.70654	0.49481
2138.77798	0.49498
2136.84941	0.49515
2134.92085	0.49523
2132.99229	0.49525
2131.06372	0.49523
2129.13516	0.49502
2127.20659	0.49455
2125.27803	0.49396
2123.34946	0.49338
2121.42090	0.49284
2119.49233	0.49222
2117.56377	0.49144
2115.63521	0.49059
2113.70664	0.48976
2111.77808	0.48883
2109.84951	0.48775
2107.92095	0.48661
2105.99238	0.48538
2104.06382	0.48410
2102.13525	0.48282
2100.20669	0.48149
2098.27812	0.47995
2096.34956	0.47830
2094.42100	0.47666
2092.49243	0.47511
2090.56387	0.47352
2088.63530	0.47165
2086.70674	0.46969
2084.77817	0.46782
2082.84961	0.46591
2080.92104	0.46384
2078.99248	0.46165
2077.06392	0.45936
2075.13535	0.45705
2073.20679	0.45468
2071.27822	0.45226
2069.34966	0.44997
2067.42109	0.44779
2065.49253	0.44552
2063.56396	0.44297
2061.63540	0.44032
2059.70684	0.43775
2057.77827	0.43512
2055.84971	0.43237
2053.92114	0.42964
2051.99258	0.42699
2050.06401	0.42436
2048.13545	0.42164
2046.20688	0.41887
2044.27832	0.41620
2042.34976	0.41354
2040.42119	0.41067
2038.49263	0.40766
2036.56406	0.40471
2034.63550	0.40181
2032.70693	0.39888
2030.77837	0.39593
2028.84980	0.39307
2026.92124	0.39033
2024.99268	0.38749
2023.06411	0.38455
2021.13555	0.38168
2019.20698	0.37900
2017.27842	0.37624
2015.34985	0.37314
2013.42129	0.36998
2011.49272	0.36709
2009.56416	0.36433
2007.63560	0.36155
2005.70703	0.35879
2003.77847	0.35607
2001.84990	0.35330
1999.92134	0.35053
1997.99277	0.34787
1996.06421	0.34537
1994.13564	0.34302
1992.20708	0.34068
1990.27852	0.33802
1988.34995	0.33520
1986.42139	0.33244
1984.49282	0.32979
1982.56426	0.32724
1980.63569	0.32477
1978.70713	0.32245
1976.77856	0.32022
1974.85000	0.31792
1972.92144	0.31557
1970.99287	0.31336
1969.06431	0.31143
1967.13574	0.30959
1965.20718	0.30745
1963.27861	0.30511
1961.35005	0.30294
1959.42148	0.30102
1957.49292	0.29925
1955.56436	0.29749
1953.63579	0.29563
1951.70723	0.29366
1949.77866	0.29182
1947.85010	0.29025
1945.92153	0.28892
1943.99297	0.28772
1942.06440	0.28636
1940.13584	0.28450
1938.20728	0.28254
1936.27871	0.28097
1934.35015	0.27964
1932.42158	0.27834
1930.49302	0.27701
1928.56445	0.27571
1926.63589	0.27456
1924.70732	0.27386
1922.77876	0.27331
1920.85020	0.27237
1918.92163	0.27136
1916.99307	0.27038
1915.06450	0.26909
1913.13594	0.26789
1911.20737	0.26720
1909.27881	0.26670
1907.35024	0.26594
1905.42168	0.26497
1903.49312	0.26417
1901.56455	0.26356
1899.63599	0.26300
1897.70742	0.26257
1895.77886	0.26230
1893.85029	0.26196
1891.92173	0.26155
1889.99316	0.26149
1888.06460	0.26126
1886.13604	0.26060
1884.20747	0.26007
1882.27891	0.25977
1880.35034	0.25955
1878.42178	0.25937
1876.49321	0.25928
1874.56465	0.25922
1872.63608	0.25942
1870.70752	0.26024
1868.77896	0.26156
1866.85039	0.26186
1864.92183	0.26096
1862.99326	0.26032
1861.06470	0.26034
1859.13613	0.26060
1857.20757	0.26080
1855.27900	0.26110
1853.35044	0.26153
1851.42187	0.26213
1849.49331	0.26299
1847.56475	0.26407
1845.63618	0.26534
1843.70762	0.26649
1841.77905	0.26676
1839.85049	0.26665
1837.92192	0.26722
1835.99336	0.26811
1834.06479	0.26899
1832.13623	0.27026
1830.20767	0.27225
1828.27910	0.27392
1826.35054	0.27471
1824.42197	0.27567
1822.49341	0.27654
1820.56484	0.27740
1818.63628	0.27868
1816.70771	0.28030
1814.77915	0.28193
1812.85059	0.28394
1810.92202	0.28640
1808.99346	0.28845
1807.06489	0.28999
1805.13633	0.29164
1803.20776	0.29396
1801.27920	0.29682
1799.35063	0.29974
1797.42207	0.30213
1795.49351	0.30448
1793.56494	0.30764
1791.63638	0.31168
1789.70781	0.31471
1787.77925	0.31661
1785.85068	0.31948
1783.92212	0.32329
1781.99355	0.32744
1780.06499	0.33178
1778.13643	0.33604
1776.20786	0.34018
1774.27930	0.34509
1772.35073	0.35171
1770.42217	0.35807
1768.49360	0.36270
1766.56504	0.36713
1764.63647	0.37204
1762.70791	0.37808
1760.77935	0.38574
1758.85078	0.39257
1756.92222	0.39927
1754.99365	0.40656
1753.06509	0.41352
1751.13652	0.42254
1749.20796	0.43390
1747.27939	0.44428
1745.35083	0.45295
1743.42227	0.46224
1741.49370	0.47275
1739.56514	0.48530
1737.63657	0.49787
1735.70801	0.50920
1733.77944	0.52668
1731.85088	0.54672
1729.92231	0.56153
1727.99375	0.57637
1726.06519	0.59272
1724.13662	0.61116
1722.20806	0.63144
1720.27949	0.65074
1718.35093	0.67404
1716.42236	0.70742
1714.49380	0.73732
1712.56523	0.76091
1710.63667	0.78441
1708.70811	0.81044
1706.77954	0.84064
1704.85098	0.87675
1702.92241	0.90877
1700.99385	0.94050
1699.06528	0.98797
1697.13672	1.03142
1695.20815	1.07515
1693.27959	1.11782
1691.35103	1.15277
1689.42246	1.19381
1687.49390	1.23746
1685.56533	1.27990
1683.63677	1.34514
1681.70820	1.41208
1679.77964	1.45389
1677.85107	1.49401
1675.92251	1.54106
1673.99395	1.59954
1672.06538	1.65134
1670.13682	1.70197
1668.20825	1.76837
1666.27969	1.82299
1664.35112	1.87054
1662.42256	1.93162
1660.49399	2.00133
1658.56543	2.05482
1656.63687	2.09718
1654.70830	2.13409
1652.77974	2.18951
1650.85117	2.24566
1648.92261	2.26679
1646.99404	2.29181
1645.06548	2.31632
1643.13691	2.33329
1641.20835	2.34348
1639.27979	2.35233
1637.35122	2.35535
1635.42266	2.35039
1633.49409	2.34174
1631.56553	2.32877
1629.63696	2.31152
1627.70840	2.28135
1625.77983	2.24721
1623.85127	2.20492
1621.92271	2.15193
1619.99414	2.10503
1618.06558	2.06111
1616.13701	1.99781
1614.20845	1.93133
1612.27988	1.88087
1610.35132	1.82932
1608.42275	1.77347
1606.49419	1.71808
1604.56562	1.66734
1602.63706	1.61848
1600.70850	1.57035
1598.77993	1.52607
1596.85137	1.48494
1594.92280	1.44476
1592.99424	1.40582
1591.06567	1.37081
1589.13711	1.33821
1587.20854	1.30755
1585.27998	1.27955
1583.35142	1.25412
1581.42285	1.23119
1579.49429	1.21194
1577.56572	1.19541
1575.63716	1.17546
1573.70859	1.15747
1571.78003	1.14620
1569.85146	1.13549
1567.92290	1.12367
1565.99434	1.11498
1564.06577	1.10916
1562.13721	1.10539
1560.20864	1.10462
1558.28008	1.10753
1556.35151	1.10944
1554.42295	1.10938
1552.49438	1.10971
1550.56582	1.10922
1548.63726	1.10636
1546.70869	1.10108
1544.78013	1.09339
1542.85156	1.08285
1540.92300	1.06567
1538.99443	1.03645
1537.06587	1.01493
1535.13730	1.00117
1533.20874	0.98301
1531.28018	0.96289
1529.35161	0.94805
1527.42305	0.93458
1525.49448	0.92089
1523.56592	0.90939
1521.63735	0.89864
1519.70879	0.88728
1517.78022	0.87723
1515.85166	0.86533
1513.92310	0.85259
1511.99453	0.84186
1510.06597	0.83321
1508.13740	0.82541
1506.20884	0.81056
1504.28027	0.79583
1502.35171	0.78806
1500.42314	0.78215
1498.49458	0.77600
1496.56602	0.76813
1494.63745	0.75969
1492.70889	0.75347
1490.78032	0.74890
1488.85176	0.74356
1486.92319	0.73726
1484.99463	0.73166
1483.06606	0.72743
1481.13750	0.72433
1479.20894	0.72214
1477.28037	0.72114
1475.35181	0.72130
1473.42324	0.72184
1471.49468	0.72019
1469.56611	0.71638
1467.63755	0.71325
1465.70898	0.71153
1463.78042	0.71040
1461.85186	0.70949
1459.92329	0.70970
1457.99473	0.71135
1456.06616	0.71154
1454.13760	0.70831
1452.20903	0.70493
1450.28047	0.70210
1448.35190	0.69966
1446.42334	0.69695
1444.49478	0.69408
1442.56621	0.69139
1440.63765	0.68885
1438.70908	0.68673
1436.78052	0.68426
1434.85195	0.68060
1432.92339	0.67722
1430.99482	0.67498
1429.06626	0.67376
1427.13770	0.67324
1425.20913	0.67337
1423.28057	0.67399
1421.35200	0.67458
1419.42344	0.67525
1417.49487	0.67513
1415.56631	0.67344
1413.63774	0.67199
1411.70918	0.67179
1409.78062	0.67262
1407.85205	0.67401
1405.92349	0.67574
1403.99492	0.67701
1402.06636	0.67717
1400.13779	0.67673
1398.20923	0.67572
1396.28066	0.67373
1394.35210	0.67017
1392.42354	0.66541
1390.49497	0.66110
1388.56641	0.65740
1386.63784	0.65310
1384.70928	0.64782
1382.78071	0.64264
1380.85215	0.63823
1378.92358	0.63465
1376.99502	0.63204
1375.06646	0.63043
1373.13789	0.62895
1371.20933	0.62736
1369.28076	0.62610
1367.35220	0.62480
1365.42363	0.62340
1363.49507	0.62229
1361.56650	0.62082
1359.63794	0.61872
1357.70937	0.61692
1355.78081	0.61565
1353.85225	0.61466
1351.92368	0.61380
1349.99512	0.61302
1348.06655	0.61221
1346.13799	0.61126
1344.20942	0.61045
1342.28086	0.61013
1340.35229	0.61022
1338.42373	0.60993
1336.49517	0.60889
1334.56660	0.60785
1332.63804	0.60731
1330.70947	0.60726
1328.78091	0.60753
1326.85234	0.60803
1324.92378	0.60859
1322.99521	0.60908
1321.06665	0.60970
1319.13809	0.61045
1317.20952	0.61087
1315.28096	0.61074
1313.35239	0.61023
1311.42383	0.60952
1309.49526	0.60877
1307.56670	0.60808
1305.63813	0.60749
1303.70957	0.60700
1301.78101	0.60647
1299.85244	0.60570
1297.92388	0.60469
1295.99531	0.60341
1294.06675	0.60193
1292.13818	0.60052
1290.20962	0.59926
1288.28105	0.59803
1286.35249	0.59669
1284.42393	0.59532
1282.49536	0.59394
1280.56680	0.59261
1278.63823	0.59140
1276.70967	0.59024
1274.78110	0.58901
1272.85254	0.58798
1270.92397	0.58722
1268.99541	0.58646
1267.06685	0.58560
1265.13828	0.58474
1263.20972	0.58393
1261.28115	0.58315
1259.35259	0.58235
1257.42402	0.58162
1255.49546	0.58116
1253.56689	0.58109
1251.63833	0.58127
1249.70977	0.58138
1247.78120	0.58136
1245.85264	0.58128
1243.92407	0.58089
1241.99551	0.57998
1240.06694	0.57875
1238.13838	0.57723
1236.20981	0.57517
1234.28125	0.57283
1232.35269	0.57062
1230.42412	0.56858
1228.49556	0.56651
1226.56699	0.56445
1224.63843	0.56269
1222.70986	0.56115
1220.78130	0.55957
1218.85273	0.55805
1216.92417	0.55675
1214.99561	0.55559
1213.06704	0.55451
1211.13848	0.55355
1209.20991	0.55262
1207.28135	0.55172
1205.35278	0.55087
1203.42422	0.55001
1201.49565	0.54909
1199.56709	0.54818
1197.63853	0.54726
1195.70996	0.54624
1193.78140	0.54540
1191.85283	0.54486
1189.92427	0.54443
1187.99570	0.54396
1186.06714	0.54361
1184.13857	0.54360
1182.21001	0.54390
1180.28145	0.54455
1178.35288	0.54575
1176.42432	0.54721
1174.49575	0.54839
1172.56719	0.54918
1170.63862	0.54967
1168.71006	0.54990
1166.78149	0.54986
1164.85293	0.54976
1162.92437	0.54972
1160.99580	0.54955
1159.06724	0.54916
1157.13867	0.54846
1155.21011	0.54728
1153.28154	0.54569
1151.35298	0.54378
1149.42441	0.54160
1147.49585	0.53927
1145.56729	0.53669
1143.63872	0.53391
1141.71016	0.53128
1139.78159	0.52904
1137.85303	0.52720
1135.92446	0.52582
1133.99590	0.52474
1132.06733	0.52371
1130.13877	0.52292
1128.21021	0.52239
1126.28164	0.52178
1124.35308	0.52100
1122.42451	0.52021
1120.49595	0.51970
1118.56738	0.51962
1116.63882	0.51978
1114.71025	0.52001
1112.78169	0.52038
1110.85312	0.52091
1108.92456	0.52172
1106.99600	0.52284
1105.06743	0.52407
1103.13887	0.52529
1101.21030	0.52671
1099.28174	0.52862
1097.35317	0.53102
1095.42461	0.53391
1093.49604	0.53758
1091.56748	0.54203
1089.63892	0.54696
1087.71035	0.55236
1085.78179	0.55849
1083.85322	0.56513
1081.92466	0.57157
1079.99609	0.57704
1078.06753	0.58067
1076.13896	0.58162
1074.21040	0.57962
1072.28184	0.57531
1070.35327	0.56972
1068.42471	0.56349
1066.49614	0.55682
1064.56758	0.55011
1062.63901	0.54411
1060.71045	0.53918
1058.78188	0.53494
1056.85332	0.53102
1054.92476	0.52736
1052.99619	0.52400
1051.06763	0.52106
1049.13906	0.51855
1047.21050	0.51637
1045.28193	0.51437
1043.35337	0.51249
1041.42480	0.51082
1039.49624	0.50956
1037.56768	0.50887
1035.63911	0.50867
1033.71055	0.50867
1031.78198	0.50854
1029.85342	0.50820
1027.92485	0.50792
1025.99629	0.50771
1024.06772	0.50756
1022.13916	0.50767
1020.21060	0.50797
1018.28203	0.50839
1016.35347	0.50904
1014.42490	0.50978
1012.49634	0.51043
1010.56777	0.51117
1008.63921	0.51225
1006.71064	0.51365
1004.78208	0.51540
1002.85352	0.51759
1000.92495	0.52025
998.99639	0.52336
997.06782	0.52695
995.13926	0.53105
993.21069	0.53524
991.28213	0.53887
989.35356	0.54126
987.42500	0.54218
985.49644	0.54239
983.56787	0.54280
981.63931	0.54367
979.71074	0.54487
977.78218	0.54638
975.85361	0.54839
973.92505	0.55101
971.99648	0.55401
970.06792	0.55713
968.13936	0.56050
966.21079	0.56434
964.28223	0.56850
962.35366	0.57297
960.42510	0.57782
958.49653	0.58311
956.56797	0.58908
954.63940	0.59545
952.71084	0.60163
950.78228	0.60768
948.85371	0.61404
946.92515	0.62061
944.99658	0.62704
943.06802	0.63324
941.13945	0.63916
939.21089	0.64485
937.28232	0.65043
935.35376	0.65586
933.42520	0.66130
931.49663	0.66666
929.56807	0.67203
927.63950	0.67776
925.71094	0.68366
923.78237	0.68966
921.85381	0.69602
919.92524	0.70294
917.99668	0.71058
916.06812	0.71887
914.13955	0.72694
912.21099	0.73436
910.28242	0.74198
908.35386	0.75035
906.42529	0.75922
904.49673	0.76828
902.56816	0.77737
900.63960	0.78635
898.71104	0.79523
896.78247	0.80483
894.85391	0.81562
892.92534	0.82658
890.99678	0.83663
889.06821	0.84610
887.13965	0.85653
885.21108	0.86851
883.28252	0.88061
881.35396	0.89194
879.42539	0.90313
877.49683	0.91416
875.56826	0.92502
873.63970	0.93603
871.71113	0.94717
869.78257	0.95895
867.85400	0.97093
865.92544	0.98250
863.99687	0.99476
862.06831	1.00795
860.13975	1.02037
858.21118	1.03161
856.28262	1.04329
854.35405	1.05549
852.42549	1.06731
850.49692	1.07975
848.56836	1.09217
846.63979	1.10334
844.71123	1.11501
842.78267	1.12704
840.85410	1.13790
838.92554	1.14767
836.99697	1.15733
835.06841	1.16751
833.13984	1.17644
831.21128	1.18385
829.28271	1.19162
827.35415	1.20134
825.42559	1.21651
823.49702	1.23438
821.56846	1.24644
819.63989	1.25825
817.71133	1.27358
815.78276	1.28151
813.85420	1.28686
811.92563	1.29774
809.99707	1.30548
808.06851	1.31305
806.13994	1.32812
804.21138	1.34576
802.28281	1.35940
800.35425	1.36410
798.42568	1.37185
796.49712	1.38144
794.56855	1.38712
792.63999	1.41608
790.71143	1.44424
788.78286	1.41743
786.85430	1.39115
784.92573	1.42396
782.99717	1.46182
781.06860	1.45814
779.14004	1.49821
777.21147	1.60485
775.28291	1.61988
773.35435	1.49681
771.42578	1.38044
769.49722	1.28234
767.56865	1.22399
765.64009	1.25274
763.71152	1.34655
761.78296	1.40376
759.85439	1.40059
757.92583	1.36575
755.99727	1.30074
754.06870	1.30145
752.14014	1.45407
750.21157	1.55033
748.28301	1.31875
746.35444	1.22673
744.42588	1.35862
742.49731	1.46105
740.56875	1.17617
738.64019	0.97456
736.71162	0.90485
734.78306	0.90222
732.85449	0.87409
730.92593	0.74425
728.99736	0.56294
727.06880	0.42150
725.14023	0.38034
723.21167	0.39083
721.28311	0.25480
719.35454	0.00822
717.42598	-0.16665
715.49741	-0.22369
713.56885	-0.29087
711.64028	-0.15588
709.71172	0.12498
707.78315	0.16176
705.85459	0.02869
703.92603	-0.06542
701.99746	0.00453
700.06890	0.22143
698.14033	0.36773
696.21177	0.33664
694.28320	0.27390
692.35464	0.25399
690.42607	0.32184
688.49751	0.41431
686.56895	0.31309
684.64038	0.18529
682.71182	0.26542
680.78325	0.45413
678.85469	0.51652
676.92612	0.39451
674.99756	0.26022
673.06899	0.15568
671.14043	0.15156
669.21187	0.24343
667.28330	0.34704
665.35474	0.37297
663.42617	0.35730
661.49761	0.29268
659.56904	0.21221
657.64048	0.21495
655.71191	0.31644
653.78335	0.48839
651.85479	0.55851
649.92622	0.38723
647.99766	0.24502
646.06909	0.29740
644.14053	0.48606
642.21196	0.68058
640.28340	0.68125
638.35483	0.48245
636.42627	0.30281
634.49771	0.14326
632.56914	0.06119
630.64058	0.13761
628.71201	0.35417
626.78345	0.45952
624.85488	0.35213
622.92632	0.27410
620.99775	0.24086
619.06919	0.23394
617.14062	0.22520
615.21206	0.18630
613.28350	0.15832
611.35493	0.18798
609.42637	0.25033
607.49780	0.28705
605.56924	0.28236
603.64067	0.24611
601.71211	0.21396
599.78354	0.24318
597.85498	0.29257
595.92642	0.27493
593.99785	0.25790
592.06929	0.29120
590.14072	0.30350
588.21216	0.26191
586.28359	0.19970
584.35503	0.17698
582.42646	0.24790
580.49790	0.34466
578.56934	0.37264
576.64077	0.35058
574.71221	0.28640
572.78364	0.20742
570.85508	0.14472
568.92651	0.13403
566.99795	0.21652
565.06938	0.37838
563.14082	0.45513
561.21226	0.37423
559.28369	0.29497
557.35513	0.24786
555.42656	0.24217
553.49800	0.31934
551.56943	0.42118
549.64087	0.41852
547.71230	0.38172
545.78374	0.35387
543.85518	0.30256
541.92661	0.24400
539.99805	0.21075
538.06948	0.20251
536.14092	0.22823
534.21235	0.28780
532.28379	0.30513
530.35522	0.31725
528.42666	0.40919
526.49810	0.39442
524.56953	0.31344
522.64097	0.32416
520.71240	0.37319
518.78384	0.41585
516.85527	0.46592
514.92671	0.47902
512.99814	0.39505
511.06958	0.32225
509.14102	0.29870
507.21245	0.26489
505.28389	0.21619
503.35532	0.20947
501.42676	0.26583
499.49819	0.32853
