3997.91411	0.09218
3995.98555	0.09209
3994.05698	0.09250
3992.12842	0.09280
3990.19985	0.09308
3988.27129	0.09374
3986.34272	0.09431
3984.41416	0.09463
3982.48560	0.09497
3980.55703	0.09500
3978.62847	0.09467
3976.69990	0.09461
3974.77134	0.09505
3972.84277	0.09558
3970.91421	0.09588
3968.98564	0.09594
3967.05708	0.09604
3965.12852	0.09645
3963.19995	0.09706
3961.27139	0.09730
3959.34282	0.09714
3957.41426	0.09694
3955.48569	0.09680
3953.55713	0.09686
3951.62856	0.09706
3949.70000	0.09717
3947.77144	0.09721
3945.84287	0.09722
3943.91431	0.09703
3941.98574	0.09693
3940.05718	0.09718
3938.12861	0.09737
3936.20005	0.09719
3934.27148	0.09691
3932.34292	0.09673
3930.41436	0.09654
3928.48579	0.09644
3926.55723	0.09645
3924.62866	0.09653
3922.70010	0.09658
3920.77153	0.09637
3918.84297	0.09599
3916.91440	0.09592
3914.98584	0.09605
3913.05728	0.09580
3911.12871	0.09535
3909.20015	0.09507
3907.27158	0.09506
3905.34302	0.09527
3903.41445	0.09543
3901.48589	0.09546
3899.55732	0.09554
3897.62876	0.09553
3895.70020	0.09543
3893.77163	0.09546
3891.84307	0.09568
3889.91450	0.09575
3887.98594	0.09548
3886.05737	0.09552
3884.12881	0.09578
3882.20024	0.09562
3880.27168	0.09556
3878.34312	0.09554
3876.41455	0.09525
3874.48599	0.09532
3872.55742	0.09577
3870.62886	0.09605
3868.70029	0.09630
3866.77173	0.09645
3864.84316	0.09677
3862.91460	0.09750
3860.98604	0.09793
3859.05747	0.09798
3857.12891	0.09799
3855.20034	0.09801
3853.27178	0.09879
3851.34321	0.10054
3849.41465	0.10100
3847.48608	0.10070
3845.55752	0.10058
3843.62896	0.10094
3841.70039	0.10169
3839.77183	0.10233
3837.84326	0.10288
3835.91470	0.10380
3833.98613	0.10466
3832.05757	0.10506
3830.12900	0.10551
3828.20044	0.10619
3826.27187	0.10677
3824.34331	0.10734
3822.41475	0.10814
3820.48618	0.10959
3818.55762	0.11090
3816.62905	0.11135
3814.70049	0.11178
3812.77192	0.11229
3810.84336	0.11296
3808.91479	0.11405
3806.98623	0.11552
3805.05767	0.11667
3803.12910	0.11728
3801.20054	0.11878
3799.27197	0.12100
3797.34341	0.12191
3795.41484	0.12217
3793.48628	0.12262
3791.55771	0.12340
3789.62915	0.12460
3787.70059	0.12588
3785.77202	0.12711
3783.84346	0.12858
3781.91489	0.13016
3779.98633	0.13168
3778.05776	0.13335
3776.12920	0.13493
3774.20063	0.13626
3772.27207	0.13763
3770.34351	0.13958
3768.41494	0.14235
3766.48638	0.14485
3764.55781	0.14661
3762.62925	0.14797
3760.70068	0.14954
3758.77212	0.15201
3756.84355	0.15469
3754.91499	0.15657
3752.98643	0.15855
3751.05786	0.16181
3749.12930	0.16572
3747.20073	0.16807
3745.27217	0.17004
3743.34360	0.17384
3741.41504	0.17785
3739.48647	0.18034
3737.55791	0.18252
3735.62935	0.18602
3733.70078	0.19202
3731.77222	0.19785
3729.84365	0.20176
3727.91509	0.20553
3725.98652	0.21078
3724.05796	0.21744
3722.12939	0.22473
3720.20083	0.23211
3718.27227	0.23917
3716.34370	0.24638
3714.41514	0.25390
3712.48657	0.26285
3710.55801	0.27574
3708.62944	0.29004
3706.70088	0.30164
3704.77231	0.31241
3702.84375	0.32502
3700.91519	0.34165
3698.98662	0.36033
3697.05806	0.37813
3695.12949	0.39653
3693.20093	0.41587
3691.27236	0.43725
3689.34380	0.46511
3687.41523	0.49905
3685.48667	0.52930
3683.55811	0.55588
3681.62954	0.58404
3679.70098	0.61513
3677.77241	0.64736
3675.84385	0.68562
3673.91528	0.73820
3671.98672	0.78181
3670.05815	0.82055
3668.12959	0.87383
3666.20103	0.92263
3664.27246	0.96325
3662.34390	1.00676
3660.41533	1.05356
3658.48677	1.09922
3656.55820	1.14763
3654.62964	1.20210
3652.70107	1.24825
3650.77251	1.28826
3648.84395	1.34339
3646.91538	1.41166
3644.98682	1.46241
3643.05825	1.50119
3641.12969	1.54048
3639.20112	1.58390
3637.27256	1.62807
3635.34399	1.67096
3633.41543	1.71340
3631.48687	1.75359
3629.55830	1.79431
3627.62974	1.84643
3625.70117	1.89657
3623.77261	1.93254
3621.84404	1.96685
3619.91548	2.00551
3617.98691	2.05142
3616.05835	2.09468
3614.12979	2.13079
3612.20122	2.16931
3610.27266	2.20863
3608.34409	2.24846
3606.41553	2.29090
3604.48696	2.33061
3602.55840	2.36624
3600.62983	2.40406
3598.70127	2.44444
3596.77271	2.48393
3594.84414	2.52486
3592.91558	2.56788
3590.98701	2.60771
3589.05845	2.64324
3587.12988	2.68449
3585.20132	2.73124
3583.27275	2.77346
3581.34419	2.81391
3579.41562	2.85709
3577.48706	2.90102
3575.55850	2.94330
3573.62993	2.98648
3571.70137	3.02938
3569.77280	3.06944
3567.84424	3.11050
3565.91567	3.16236
3563.98711	3.21520
3562.05854	3.25701
3560.12998	3.29765
3558.20142	3.34406
3556.27285	3.39226
3554.34429	3.43587
3552.41572	3.47926
3550.48716	3.52757
3548.55859	3.57677
3546.63003	3.62312
3544.70146	3.66959
3542.77290	3.71637
3540.84434	3.76279
3538.91577	3.80950
3536.98721	3.85497
3535.05864	3.90297
3533.13008	3.95313
3531.20151	4.00237
3529.27295	4.05303
3527.34438	4.10596
3525.41582	4.15478
3523.48726	4.20029
3521.55869	4.24987
3519.63013	4.30000
3517.70156	4.34749
3515.77300	4.39489
3513.84443	4.44218
3511.91587	4.48775
3509.98730	4.53512
3508.05874	4.58425
3506.13018	4.63158
3504.20161	4.67614
3502.27305	4.71979
3500.34448	4.76950
3498.41592	4.82013
3496.48735	4.86427
3494.55879	4.90930
3492.63022	4.96047
3490.70166	5.01406
3488.77310	5.06914
3486.84453	5.12505
3484.91597	5.17642
3482.98740	5.22217
3481.05884	5.26660
3479.13027	5.31137
3477.20171	5.35827
3475.27314	5.40482
3473.34458	5.44988
3471.41602	5.49972
3469.48745	5.55228
3467.55889	5.60263
3465.63032	5.65013
3463.70176	5.69726
3461.77319	5.74599
3459.84463	5.79478
3457.91606	5.83978
3455.98750	5.88356
3454.05894	5.93457
3452.13037	5.99466
3450.20181	6.05718
3448.27324	6.10758
3446.34468	6.14342
3444.41611	6.18460
3442.48755	6.24758
3440.55898	6.31705
3438.63042	6.36807
3436.70186	6.40371
3434.77329	6.44933
3432.84473	6.50163
3430.91616	6.53993
3428.98760	6.58444
3427.05903	6.64027
3425.13047	6.69269
3423.20190	6.74502
3421.27334	6.78724
3419.34478	6.80027
3417.41621	6.80419
3415.48765	6.82318
3413.55908	6.85871
3411.63052	6.91850
3409.70195	6.99979
3407.77339	7.08929
3405.84482	7.16025
3403.91626	7.19607
3401.98770	7.20568
3400.05913	7.23706
3398.13057	7.31589
3396.20200	7.41999
3394.27344	7.52718
3392.34487	7.55914
3390.41631	7.49617
3388.48774	7.46064
3386.55918	7.51847
3384.63062	7.56946
3382.70205	7.58013
3380.77349	7.63539
3378.84492	7.72404
3376.91636	7.79539
3374.98779	7.84827
3373.05923	7.89153
3371.13066	7.86009
3369.20210	7.78201
3367.27354	7.73617
3365.34497	7.74965
3363.41641	7.81944
3361.48784	7.86586
3359.55928	7.88352
3357.63071	7.95566
3355.70215	8.04452
3353.77358	8.01867
3351.84502	7.91674
3349.91646	7.85022
3347.98789	7.86686
3346.05933	7.92748
3344.13076	7.99968
3342.20220	8.11379
3340.27363	8.19158
3338.34507	8.18401
3336.41650	8.20181
3334.48794	8.28824
3332.55937	8.29454
3330.63081	8.21619
3328.70225	8.17830
3326.77368	8.21686
3324.84512	8.32915
3322.91655	8.41390
3320.98799	8.39791
3319.05942	8.29681
3317.13086	8.17509
3315.20229	8.13515
3313.27373	8.21494
3311.34517	8.25374
3309.41660	8.16121
3307.48804	8.10291
3305.55947	8.14086
3303.63091	8.18497
3301.70234	8.13960
3299.77378	8.08665
3297.84521	8.13903
3295.91665	8.27077
3293.98809	8.36615
3292.05952	8.44646
3290.13096	8.56078
3288.20239	8.53883
3286.27383	8.41733
3284.34526	8.35778
3282.41670	8.33523
3280.48813	8.26895
3278.55957	8.16178
3276.63101	8.10976
3274.70244	8.18133
3272.77388	8.31059
3270.84531	8.39835
3268.91675	8.46056
3266.98818	8.49441
3265.05962	8.43903
3263.13105	8.34336
3261.20249	8.34191
3259.27393	8.36798
3257.34536	8.27114
3255.41680	8.13268
3253.48823	8.08272
3251.55967	8.13232
3249.63110	8.21667
3247.70254	8.25238
3245.77397	8.20929
3243.84541	8.17149
3241.91685	8.19038
3239.98828	8.23960
3238.05972	8.26840
3236.13115	8.23572
3234.20259	8.20727
3232.27402	8.25107
3230.34546	8.31756
3228.41689	8.31731
3226.48833	8.27518
3224.55977	8.31377
3222.63120	8.38999
3220.70264	8.32324
3218.77407	8.23401
3216.84551	8.25412
3214.91694	8.26398
3212.98838	8.24999
3211.05981	8.23752
3209.13125	8.14601
3207.20269	8.04566
3205.27412	8.00388
3203.34556	7.94888
3201.41699	7.84104
3199.48843	7.73149
3197.55986	7.69341
3195.63130	7.70134
3193.70273	7.66533
3191.77417	7.60054
3189.84561	7.55929
3187.91704	7.50928
3185.98848	7.44745
3184.05991	7.41688
3182.13135	7.37847
3180.20278	7.30482
3178.27422	7.24453
3176.34565	7.20773
3174.41709	7.16033
3172.48853	7.11203
3170.55996	7.07334
3168.63140	7.02550
3166.70283	6.98001
3164.77427	6.94631
3162.84570	6.91335
3160.91714	6.86802
3158.98857	6.79313
3157.06001	6.68558
3155.13145	6.58864
3153.20288	6.53840
3151.27432	6.51218
3149.34575	6.47120
3147.41719	6.40104
3145.48862	6.31626
3143.56006	6.22966
3141.63149	6.15275
3139.70293	6.09240
3137.77437	6.02778
3135.84580	5.95215
3133.91724	5.88172
3131.98867	5.81592
3130.06011	5.74276
3128.13154	5.66829
3126.20298	5.60765
3124.27441	5.54844
3122.34585	5.47375
3120.41729	5.39590
3118.48872	5.32283
3116.56016	5.24495
3114.63159	5.16486
3112.70303	5.09563
3110.77446	5.03072
3108.84590	4.96096
3106.91733	4.89199
3104.98877	4.82140
3103.06021	4.74782
3101.13164	4.68066
3099.20308	4.62193
3097.27451	4.56273
3095.34595	4.49784
3093.41738	4.42958
3091.48882	4.36198
3089.56025	4.29937
3087.63169	4.24127
3085.70312	4.18233
3083.77456	4.12008
3081.84600	4.05699
3079.91743	3.99447
3077.98887	3.93338
3076.06030	3.87653
3074.13174	3.82285
3072.20317	3.76867
3070.27461	3.71330
3068.34604	3.65615
3066.41748	3.59697
3064.48892	3.53940
3062.56035	3.48496
3060.63179	3.43103
3058.70322	3.37613
3056.77466	3.32147
3054.84609	3.26874
3052.91753	3.21724
3050.98896	3.16581
3049.06040	3.11477
3047.13184	3.06444
3045.20327	3.01382
3043.27471	2.96216
3041.34614	2.91166
3039.41758	2.86443
3037.48901	2.81897
3035.56045	2.77311
3033.63188	2.72711
3031.70332	2.68231
3029.77476	2.63833
3027.84619	2.59432
3025.91763	2.55014
3023.98906	2.50567
3022.06050	2.46202
3020.13193	2.42021
3018.20337	2.37932
3016.27480	2.33812
3014.34624	2.29739
3012.41768	2.25830
3010.48911	2.21982
3008.56055	2.18162
3006.63198	2.14461
3004.70342	2.10900
3002.77485	2.07418
3000.84629	2.03927
2998.91772	2.00465
2996.98916	1.97121
2995.06060	1.93901
2993.13203	1.90770
2991.20347	1.87699
2989.27490	1.84681
2987.34634	1.81715
2985.41777	1.78809
2983.48921	1.76014
2981.56064	1.73310
2979.63208	1.70618
2977.70352	1.67939
2975.77495	1.65349
2973.84639	1.62881
2971.91782	1.60462
2969.98926	1.58009
2968.06069	1.55566
2966.13213	1.53199
2964.20356	1.50869
2962.27500	1.48524
2960.34644	1.46138
2958.41787	1.43687
2956.48931	1.41224
2954.56074	1.38801
2952.63218	1.36362
2950.70361	1.33924
2948.77505	1.31561
2946.84648	1.29275
2944.91792	1.27061
2942.98936	1.24904
2941.06079	1.22820
2939.13223	1.20794
2937.20366	1.18716
2935.27510	1.16627
2933.34653	1.14632
2931.41797	1.12679
2929.48940	1.10694
2927.56084	1.08674
2925.63228	1.06690
2923.70371	1.04804
2921.77515	1.02976
2919.84658	1.01150
2917.91802	0.99328
2915.98945	0.97529
2914.06089	0.95755
2912.13232	0.94007
2910.20376	0.92300
2908.27520	0.90624
2906.34663	0.89022
2904.41807	0.87519
2902.48950	0.86061
2900.56094	0.84636
2898.63237	0.83234
2896.70381	0.81817
2894.77524	0.80413
2892.84668	0.79074
2890.91812	0.77805
2888.98955	0.76612
2887.06099	0.75495
2885.13242	0.74411
2883.20386	0.73347
2881.27529	0.72356
2879.34673	0.71430
2877.41816	0.70465
2875.48960	0.69445
2873.56104	0.68409
2871.63247	0.67318
2869.70391	0.66158
2867.77534	0.64951
2865.84678	0.63712
2863.91821	0.62489
2861.98965	0.61325
2860.06108	0.60233
2858.13252	0.59183
2856.20396	0.58151
2854.27539	0.57150
2852.34683	0.56174
2850.41826	0.55255
2848.48970	0.54398
2846.56113	0.53522
2844.63257	0.52658
2842.70400	0.51898
2840.77544	0.51208
2838.84687	0.50523
2836.91831	0.49849
2834.98975	0.49193
2833.06118	0.48548
2831.13262	0.47921
2829.20405	0.47306
2827.27549	0.46690
2825.34692	0.46071
2823.41836	0.45437
2821.48979	0.44798
2819.56123	0.44182
2817.63267	0.43586
2815.70410	0.42990
2813.77554	0.42406
2811.84697	0.41837
2809.91841	0.41269
2807.98984	0.40711
2806.06128	0.40160
2804.13271	0.39598
2802.20415	0.39044
2800.27559	0.38532
2798.34702	0.38042
2796.41846	0.37532
2794.48989	0.37024
2792.56133	0.36541
2790.63276	0.36070
2788.70420	0.35600
2786.77563	0.35136
2784.84707	0.34684
2782.91851	0.34252
2780.98994	0.33834
2779.06138	0.33404
2777.13281	0.32970
2775.20425	0.32558
2773.27568	0.32165
2771.34712	0.31770
2769.41855	0.31375
2767.48999	0.30993
2765.56143	0.30620
2763.63286	0.30249
2761.70430	0.29891
2759.77573	0.29545
2757.84717	0.29209
2755.91860	0.28877
2753.99004	0.28550
2752.06147	0.28235
2750.13291	0.27928
2748.20435	0.27614
2746.27578	0.27295
2744.34722	0.26992
2742.41865	0.26702
2740.49009	0.26417
2738.56152	0.26138
2736.63296	0.25877
2734.70439	0.25619
2732.77583	0.25339
2730.84727	0.25073
2728.91870	0.24850
2726.99014	0.24624
2725.06157	0.24374
2723.13301	0.24126
2721.20444	0.23891
2719.27588	0.23669
2717.34731	0.23471
2715.41875	0.23273
2713.49019	0.23059
2711.56162	0.22857
2709.63306	0.22681
2707.70449	0.22514
2705.77593	0.22342
2703.84736	0.22173
2701.91880	0.22013
2699.99023	0.21857
2698.06167	0.21709
2696.13311	0.21560
2694.20454	0.21401
2692.27598	0.21240
2690.34741	0.21085
2688.41885	0.20950
2686.49028	0.20832
2684.56172	0.20706
2682.63315	0.20579
2680.70459	0.20460
2678.77603	0.20335
2676.84746	0.20209
2674.91890	0.20099
2672.99033	0.19996
2671.06177	0.19881
2669.13320	0.19765
2667.20464	0.19656
2665.27607	0.19554
2663.34751	0.19457
2661.41895	0.19358
2659.49038	0.19265
2657.56182	0.19194
2655.63325	0.19128
2653.70469	0.19046
2651.77612	0.18955
2649.84756	0.18882
2647.91899	0.18828
2645.99043	0.18767
2644.06187	0.18686
2642.13330	0.18609
2640.20474	0.18555
2638.27617	0.18508
2636.34761	0.18457
2634.41904	0.18407
2632.49048	0.18354
2630.56191	0.18292
2628.63335	0.18239
2626.70479	0.18201
2624.77622	0.18162
2622.84766	0.18125
2620.91909	0.18106
2618.99053	0.18093
2617.06196	0.18074
2615.13340	0.18049
2613.20483	0.18015
2611.27627	0.17979
2609.34771	0.17954
2607.41914	0.17940
2605.49058	0.17930
2603.56201	0.17917
2601.63345	0.17899
2599.70488	0.17885
2597.77632	0.17879
2595.84775	0.17872
2593.91919	0.17870
2591.99062	0.17885
2590.06206	0.17913
2588.13350	0.17932
2586.20493	0.17939
2584.27637	0.17948
2582.34780	0.17957
2580.41924	0.17969
2578.49067	0.17986
2576.56211	0.18003
2574.63354	0.18020
2572.70498	0.18040
2570.77642	0.18066
2568.84785	0.18098
2566.91929	0.18136
2564.99072	0.18181
2563.06216	0.18222
2561.13359	0.18250
2559.20503	0.18274
2557.27646	0.18308
2555.34790	0.18359
2553.41934	0.18418
2551.49077	0.18463
2549.56221	0.18502
2547.63364	0.18552
2545.70508	0.18606
2543.77651	0.18657
2541.84795	0.18704
2539.91938	0.18751
2537.99082	0.18810
2536.06226	0.18872
2534.13369	0.18930
2532.20513	0.18988
2530.27656	0.19050
2528.34800	0.19120
2526.41943	0.19191
2524.49087	0.19256
2522.56230	0.19317
2520.63374	0.19388
2518.70518	0.19477
2516.77661	0.19568
2514.84805	0.19636
2512.91948	0.19697
2510.99092	0.19777
2509.06235	0.19856
2507.13379	0.19927
2505.20522	0.20004
2503.27666	0.20087
2501.34810	0.20174
2499.41953	0.20264
2497.49097	0.20337
2495.56240	0.20403
2493.63384	0.20477
2491.70527	0.20559
2489.77671	0.20642
2487.84814	0.20725
2485.91958	0.20806
2483.99102	0.20889
2482.06245	0.20969
2480.13389	0.21049
2478.20532	0.21138
2476.27676	0.21228
2474.34819	0.21311
2472.41963	0.21392
2470.49106	0.21467
2468.56250	0.21544
2466.63394	0.21631
2464.70537	0.21723
2462.77681	0.21826
2460.84824	0.21928
2458.91968	0.22012
2456.99111	0.22088
2455.06255	0.22174
2453.13398	0.22275
2451.20542	0.22378
2449.27686	0.22469
2447.34829	0.22559
2445.41973	0.22662
2443.49116	0.22767
2441.56260	0.22860
2439.63403	0.22954
2437.70547	0.23053
2435.77690	0.23156
2433.84834	0.23259
2431.91978	0.23359
2429.99121	0.23459
2428.06265	0.23561
2426.13408	0.23658
2424.20552	0.23755
2422.27695	0.23864
2420.34839	0.23975
2418.41982	0.24084
2416.49126	0.24195
2414.56270	0.24304
2412.63413	0.24409
2410.70557	0.24512
2408.77700	0.24626
2406.84844	0.24757
2404.91987	0.24893
2402.99131	0.25013
2401.06274	0.25126
2399.13418	0.25237
2397.20562	0.25355
2395.27705	0.25486
2393.34849	0.25604
2391.41992	0.25709
2389.49136	0.25830
2387.56279	0.25960
2385.63423	0.26071
2383.70566	0.26161
2381.77710	0.26240
2379.84854	0.26307
2377.91997	0.26354
2375.99141	0.26383
2374.06284	0.26407
2372.13428	0.26438
2370.20571	0.26461
2368.27715	0.26434
2366.34858	0.26384
2364.42002	0.26384
2362.49146	0.26476
2360.56289	0.26648
2358.63433	0.26888
2356.70576	0.27207
2354.77720	0.27571
2352.84863	0.27915
2350.92007	0.28155
2348.99150	0.28266
2347.06294	0.28309
2345.13437	0.28367
2343.20581	0.28460
2341.27725	0.28548
2339.34868	0.28678
2337.42012	0.28867
2335.49155	0.29092
2333.56299	0.29317
2331.63442	0.29534
2329.70586	0.29770
2327.77729	0.29975
2325.84873	0.30160
2323.92017	0.30409
2321.99160	0.30668
2320.06304	0.30896
2318.13447	0.31115
2316.20591	0.31304
2314.27734	0.31478
2312.34878	0.31676
2310.42021	0.31884
2308.49165	0.32085
2306.56309	0.32297
2304.63452	0.32516
2302.70596	0.32710
2300.77739	0.32887
2298.84883	0.33084
2296.92026	0.33295
2294.99170	0.33501
2293.06313	0.33707
2291.13457	0.33916
2289.20601	0.34123
2287.27744	0.34330
2285.34888	0.34533
2283.42031	0.34724
2281.49175	0.34905
2279.56318	0.35092
2277.63462	0.35300
2275.70605	0.35521
2273.77749	0.35722
2271.84893	0.35911
2269.92036	0.36112
2267.99180	0.36331
2266.06323	0.36565
2264.13467	0.36794
2262.20610	0.37011
2260.27754	0.37228
2258.34897	0.37438
2256.42041	0.37645
2254.49185	0.37860
2252.56328	0.38082
2250.63472	0.38299
2248.70615	0.38515
2246.77759	0.38742
2244.84902	0.38971
2242.92046	0.39189
2240.99189	0.39407
2239.06333	0.39634
2237.13477	0.39862
2235.20620	0.40088
2233.27764	0.40312
2231.34907	0.40537
2229.42051	0.40764
2227.49194	0.40984
2225.56338	0.41196
2223.63481	0.41420
2221.70625	0.41658
2219.77769	0.41889
2217.84912	0.42105
2215.92056	0.42316
2213.99199	0.42523
2212.06343	0.42734
2210.13486	0.42948
2208.20630	0.43161
2206.27773	0.43380
2204.34917	0.43604
2202.42061	0.43822
2200.49204	0.44028
2198.56348	0.44223
2196.63491	0.44411
2194.70635	0.44599
2192.77778	0.44787
2190.84922	0.44977
2188.92065	0.45169
2186.99209	0.45345
2185.06353	0.45513
2183.13496	0.45683
2181.20640	0.45853
2179.27783	0.46016
2177.34927	0.46179
2175.42070	0.46347
2173.49214	0.46510
2171.56357	0.46661
2169.63501	0.46800
2167.70645	0.46920
2165.77788	0.47031
2163.84932	0.47145
2161.92075	0.47261
2159.99219	0.47369
2158.06362	0.47473
2156.13506	0.47570
2154.20649	0.47654
2152.27793	0.47724
2150.34937	0.47791
2148.42080	0.47857
2146.49224	0.47909
2144.56367	0.47934
2142.63511	0.47962
2140.70654	0.48006
2138.77798	0.48036
2136.84941	0.48039
2134.92085	0.48032
2132.99229	0.48033
2131.06372	0.48042
2129.13516	0.48039
2127.20659	0.48010
2125.27803	0.47955
2123.34946	0.47890
2121.42090	0.47835
2119.49233	0.47779
2117.56377	0.47705
2115.63521	0.47619
2113.70664	0.47534
2111.77808	0.47443
2109.84951	0.47338
2107.92095	0.47227
2105.99238	0.47110
2104.06382	0.46989
2102.13525	0.46867
2100.20669	0.46735
2098.27812	0.46581
2096.34956	0.46416
2094.42100	0.46251
2092.49243	0.46079
2090.56387	0.45893
2088.63530	0.45701
2086.70674	0.45525
2084.77817	0.45353
2082.84961	0.45163
2080.92104	0.44951
2078.99248	0.44729
2077.06392	0.44507
2075.13535	0.44287
2073.20679	0.44062
2071.27822	0.43825
2069.34966	0.43582
2067.42109	0.43340
2065.49253	0.43101
2063.56396	0.42858
2061.63540	0.42610
2059.70684	0.42359
2057.77827	0.42100
2055.84971	0.41823
2053.92114	0.41543
2051.99258	0.41282
2050.06401	0.41030
2048.13545	0.40763
2046.20688	0.40488
2044.27832	0.40218
2042.34976	0.39937
2040.42119	0.39645
2038.49263	0.39362
2036.56406	0.39090
2034.63550	0.38817
2032.70693	0.38530
2030.77837	0.38237
2028.84980	0.37946
2026.92124	0.37659
2024.99268	0.37372
2023.06411	0.37090
2021.13555	0.36810
2019.20698	0.36527
2017.27842	0.36242
2015.34985	0.35950
2013.42129	0.35658
2011.49272	0.35373
2009.56416	0.35092
2007.63560	0.34813
2005.70703	0.34538
2003.77847	0.34278
2001.84990	0.34024
1999.92134	0.33755
1997.99277	0.33476
1996.06421	0.33207
1994.13564	0.32950
1992.20708	0.32696
1990.27852	0.32438
1988.34995	0.32177
1986.42139	0.31920
1984.49282	0.31670
1982.56426	0.31419
1980.63569	0.31173
1978.70713	0.30947
1976.77856	0.30729
1974.85000	0.30508
1972.92144	0.30283
1970.99287	0.30062
1969.06431	0.29852
1967.13574	0.29648
1965.20718	0.29443
1963.27861	0.29238
1961.35005	0.29033
1959.42148	0.28838
1957.49292	0.28659
1955.56436	0.28480
1953.63579	0.28289
1951.70723	0.28095
1949.77866	0.27922
1947.85010	0.27770
1945.92153	0.27623
1943.99297	0.27472
1942.06440	0.27321
1940.13584	0.27170
1938.20728	0.27018
1936.27871	0.26871
1934.35015	0.26733
1932.42158	0.26602
1930.49302	0.26475
1928.56445	0.26354
1926.63589	0.26237
1924.70732	0.26132
1922.77876	0.26037
1920.85020	0.25942
1918.92163	0.25853
1916.99307	0.25767
1915.06450	0.25675
1913.13594	0.25584
1911.20737	0.25508
1909.27881	0.25437
1907.35024	0.25366
1905.42168	0.25297
1903.49312	0.25236
1901.56455	0.25184
1899.63599	0.25131
1897.70742	0.25077
1895.77886	0.25030
1893.85029	0.24992
1891.92173	0.24955
1889.99316	0.24925
1888.06460	0.24894
1886.13604	0.24864
1884.20747	0.24846
1882.27891	0.24831
1880.35034	0.24817
1878.42178	0.24805
1876.49321	0.24800
1874.56465	0.24797
1872.63608	0.24801
1870.70752	0.24813
1868.77896	0.24846
1866.85039	0.24872
1864.92183	0.24880
1862.99326	0.24896
1861.06470	0.24923
1859.13613	0.24956
1857.20757	0.24980
1855.27900	0.25012
1853.35044	0.25059
1851.42187	0.25118
1849.49331	0.25176
1847.56475	0.25239
1845.63618	0.25318
1843.70762	0.25416
1841.77905	0.25502
1839.85049	0.25553
1837.92192	0.25626
1835.99336	0.25714
1834.06479	0.25804
1832.13623	0.25897
1830.20767	0.26025
1828.27910	0.26171
1826.35054	0.26282
1824.42197	0.26409
1822.49341	0.26543
1820.56484	0.26669
1818.63628	0.26802
1816.70771	0.26960
1814.77915	0.27123
1812.85059	0.27295
1810.92202	0.27500
1808.99346	0.27716
1807.06489	0.27911
1805.13633	0.28097
1803.20776	0.28312
1801.27920	0.28559
1799.35063	0.28834
1797.42207	0.29083
1795.49351	0.29312
1793.56494	0.29582
1791.63638	0.29956
1789.70781	0.30333
1787.77925	0.30610
1785.85068	0.30917
1783.92212	0.31276
1781.99355	0.31654
1780.06499	0.32054
1778.13643	0.32484
1776.20786	0.32905
1774.27930	0.33347
1772.35073	0.33923
1770.42217	0.34547
1768.49360	0.35084
1766.56504	0.35614
1764.63647	0.36157
1762.70791	0.36756
1760.77935	0.37518
1758.85078	0.38222
1756.92222	0.38914
1754.99365	0.39675
1753.06509	0.40374
1751.13652	0.41207
1749.20796	0.42274
1747.27939	0.43339
1745.35083	0.44268
1743.42227	0.45233
1741.49370	0.46289
1739.56514	0.47528
1737.63657	0.48768
1735.70801	0.49855
1733.77944	0.51496
1731.85088	0.53468
1729.92231	0.55024
1727.99375	0.56606
1726.06519	0.58314
1724.13662	0.60169
1722.20806	0.62162
1720.27949	0.64001
1718.35093	0.66155
1716.42236	0.69360
1714.49380	0.72452
1712.56523	0.74957
1710.63667	0.77372
1708.70811	0.79978
1706.77954	0.82966
1704.85098	0.86552
1702.92241	0.89743
1700.99385	0.92855
1699.06528	0.97533
1697.13672	1.01971
1695.20815	1.06622
1693.27959	1.11184
1691.35103	1.14841
1689.42246	1.19052
1687.49390	1.23531
1685.56533	1.27902
1683.63677	1.34701
1681.70820	1.41771
1679.77964	1.46236
1677.85107	1.50509
1675.92251	1.55472
1673.99395	1.61701
1672.06538	1.67355
1670.13682	1.72854
1668.20825	1.79932
1666.27969	1.85790
1664.35112	1.90969
1662.42256	1.97639
1660.49399	2.05330
1658.56543	2.11301
1656.63687	2.16044
1654.70830	2.20302
1652.77974	2.26629
1650.85117	2.32591
1648.92261	2.34530
1646.99404	2.36831
1645.06548	2.39183
1643.13691	2.40826
1641.20835	2.41560
1639.27979	2.42026
1637.35122	2.41959
1635.42266	2.41411
1633.49409	2.40537
1631.56553	2.38928
1629.63696	2.36795
1627.70840	2.33365
1625.77983	2.29630
1623.85127	2.25122
1621.92271	2.19619
1619.99414	2.14709
1618.06558	2.09966
1616.13701	2.03246
1614.20845	1.96363
1612.27988	1.91106
1610.35132	1.85647
1608.42275	1.79769
1606.49419	1.74063
1604.56562	1.68882
1602.63706	1.63861
1600.70850	1.58953
1598.77993	1.54486
1596.85137	1.50363
1594.92280	1.46407
1592.99424	1.42570
1591.06567	1.39051
1589.13711	1.35848
1587.20854	1.32979
1585.27998	1.30392
1583.35142	1.28038
1581.42285	1.25933
1579.49429	1.24147
1577.56572	1.22582
1575.63716	1.20780
1573.70859	1.19246
1571.78003	1.18266
1569.85146	1.17379
1567.92290	1.16586
1565.99434	1.16141
1564.06577	1.15940
1562.13721	1.15854
1560.20864	1.15995
1558.28008	1.16947
1556.35151	1.18046
1554.42295	1.18630
1552.49438	1.19228
1550.56582	1.19618
1548.63726	1.19610
1546.70869	1.19208
1544.78013	1.18368
1542.85156	1.17028
1540.92300	1.14804
1538.99443	1.11385
1537.06587	1.09002
1535.13730	1.07313
1533.20874	1.04935
1531.28018	1.02408
1529.35161	1.00578
1527.42305	0.98855
1525.49448	0.97091
1523.56592	0.95600
1521.63735	0.94198
1519.70879	0.92830
1517.78022	0.91688
1515.85166	0.90335
1513.92310	0.88870
1511.99453	0.87537
1510.06597	0.86314
1508.13740	0.85110
1506.20884	0.83242
1504.28027	0.81681
1502.35171	0.80847
1500.42314	0.80095
1498.49458	0.79250
1496.56602	0.78274
1494.63745	0.77313
1492.70889	0.76542
1490.78032	0.75853
1488.85176	0.75139
1486.92319	0.74523
1484.99463	0.74020
1483.06606	0.73609
1481.13750	0.73288
1479.20894	0.73070
1477.28037	0.72975
1475.35181	0.72988
1473.42324	0.73063
1471.49468	0.73056
1469.56611	0.72902
1467.63755	0.72704
1465.70898	0.72539
1463.78042	0.72432
1461.85186	0.72388
1459.92329	0.72405
1457.99473	0.72506
1456.06616	0.72556
1454.13760	0.72356
1452.20903	0.72079
1450.28047	0.71801
1448.35190	0.71531
1446.42334	0.71240
1444.49478	0.70933
1442.56621	0.70625
1440.63765	0.70312
1438.70908	0.69983
1436.78052	0.69560
1434.85195	0.69077
1432.92339	0.68719
1430.99482	0.68505
1429.06626	0.68427
1427.13770	0.68445
1425.20913	0.68532
1423.28057	0.68696
1421.35200	0.68858
1419.42344	0.68978
1417.49487	0.69034
1415.56631	0.68992
1413.63774	0.68955
1411.70918	0.69008
1409.78062	0.69174
1407.85205	0.69405
1405.92349	0.69663
1403.99492	0.69898
1402.06636	0.70010
1400.13779	0.69982
1398.20923	0.69810
1396.28066	0.69502
1394.35210	0.69062
1392.42354	0.68544
1390.49497	0.68034
1388.56641	0.67495
1386.63784	0.66859
1384.70928	0.66207
1382.78071	0.65607
1380.85215	0.65032
1378.92358	0.64512
1376.99502	0.64109
1375.06646	0.63841
1373.13789	0.63670
1371.20933	0.63547
1369.28076	0.63438
1367.35220	0.63308
1365.42363	0.63135
1363.49507	0.62939
1361.56650	0.62749
1359.63794	0.62584
1357.70937	0.62439
1355.78081	0.62302
1353.85225	0.62187
1351.92368	0.62111
1349.99512	0.62059
1348.06655	0.62004
1346.13799	0.61934
1344.20942	0.61859
1342.28086	0.61786
1340.35229	0.61729
1338.42373	0.61683
1336.49517	0.61645
1334.56660	0.61626
1332.63804	0.61630
1330.70947	0.61656
1328.78091	0.61718
1326.85234	0.61825
1324.92378	0.61956
1322.99521	0.62093
1321.06665	0.62214
1319.13809	0.62310
1317.20952	0.62377
1315.28096	0.62401
1313.35239	0.62388
1311.42383	0.62354
1309.49526	0.62313
1307.56670	0.62280
1305.63813	0.62257
1303.70957	0.62217
1301.78101	0.62148
1299.85244	0.62057
1297.92388	0.61953
1295.99531	0.61824
1294.06675	0.61664
1292.13818	0.61490
1290.20962	0.61312
1288.28105	0.61142
1286.35249	0.60998
1284.42393	0.60868
1282.49536	0.60719
1280.56680	0.60549
1278.63823	0.60366
1276.70967	0.60186
1274.78110	0.60030
1272.85254	0.59915
1270.92397	0.59839
1268.99541	0.59767
1267.06685	0.59677
1265.13828	0.59569
1263.20972	0.59462
1261.28115	0.59369
1259.35259	0.59287
1257.42402	0.59222
1255.49546	0.59181
1253.56689	0.59165
1251.63833	0.59173
1249.70977	0.59197
1247.78120	0.59219
1245.85264	0.59215
1243.92407	0.59163
1241.99551	0.59056
1240.06694	0.58898
1238.13838	0.58691
1236.20981	0.58431
1234.28125	0.58142
1232.35269	0.57861
1230.42412	0.57589
1228.49556	0.57325
1226.56699	0.57080
1224.63843	0.56847
1222.70986	0.56632
1220.78130	0.56444
1218.85273	0.56265
1216.92417	0.56102
1214.99561	0.55973
1213.06704	0.55866
1211.13848	0.55769
1209.20991	0.55684
1207.28135	0.55602
1205.35278	0.55501
1203.42422	0.55370
1201.49565	0.55230
1199.56709	0.55129
1197.63853	0.55074
1195.70996	0.55021
1193.78140	0.54959
1191.85283	0.54900
1189.92427	0.54846
1187.99570	0.54801
1186.06714	0.54779
1184.13857	0.54796
1182.21001	0.54860
1180.28145	0.54970
1178.35288	0.55115
1176.42432	0.55272
1174.49575	0.55409
1172.56719	0.55501
1170.63862	0.55537
1168.71006	0.55513
1166.78149	0.55452
1164.85293	0.55389
1162.92437	0.55321
1160.99580	0.55233
1159.06724	0.55130
1157.13867	0.55017
1155.21011	0.54890
1153.28154	0.54735
1151.35298	0.54548
1149.42441	0.54323
1147.49585	0.54066
1145.56729	0.53800
1143.63872	0.53543
1141.71016	0.53313
1139.78159	0.53128
1137.85303	0.52980
1135.92446	0.52856
1133.99590	0.52762
1132.06733	0.52715
1130.13877	0.52704
1128.21021	0.52686
1126.28164	0.52639
1124.35308	0.52570
1122.42451	0.52504
1120.49595	0.52446
1118.56738	0.52391
1116.63882	0.52340
1114.71025	0.52297
1112.78169	0.52264
1110.85312	0.52275
1108.92456	0.52356
1106.99600	0.52472
1105.06743	0.52585
1103.13887	0.52725
1101.21030	0.52908
1099.28174	0.53103
1097.35317	0.53320
1095.42461	0.53615
1093.49604	0.53994
1091.56748	0.54423
1089.63892	0.54887
1087.71035	0.55407
1085.78179	0.55985
1083.85322	0.56581
1081.92466	0.57155
1079.99609	0.57640
1078.06753	0.57945
1076.13896	0.58005
1074.21040	0.57799
1072.28184	0.57360
1070.35327	0.56769
1068.42471	0.56114
1066.49614	0.55450
1064.56758	0.54809
1062.63901	0.54215
1060.71045	0.53672
1058.78188	0.53192
1056.85332	0.52786
1054.92476	0.52436
1052.99619	0.52107
1051.06763	0.51801
1049.13906	0.51537
1047.21050	0.51304
1045.28193	0.51088
1043.35337	0.50888
1041.42480	0.50711
1039.49624	0.50557
1037.56768	0.50421
1035.63911	0.50319
1033.71055	0.50268
1031.78198	0.50248
1029.85342	0.50225
1027.92485	0.50201
1025.99629	0.50194
1024.06772	0.50199
1022.13916	0.50222
1020.21060	0.50285
1018.28203	0.50375
1016.35347	0.50459
1014.42490	0.50530
1012.49634	0.50605
1010.56777	0.50698
1008.63921	0.50816
1006.71064	0.50962
1004.78208	0.51135
1002.85352	0.51359
1000.92495	0.51642
998.99639	0.51971
997.06782	0.52350
995.13926	0.52771
993.21069	0.53187
991.28213	0.53543
989.35356	0.53805
987.42500	0.53960
985.49644	0.54037
983.56787	0.54088
981.63931	0.54153
979.71074	0.54262
977.78218	0.54427
975.85361	0.54633
973.92505	0.54869
971.99648	0.55153
970.06792	0.55493
968.13936	0.55872
966.21079	0.56266
964.28223	0.56686
962.35366	0.57173
960.42510	0.57722
958.49653	0.58286
956.56797	0.58847
954.63940	0.59427
952.71084	0.60026
950.78228	0.60639
948.85371	0.61294
946.92515	0.61978
944.99658	0.62601
943.06802	0.63180
941.13945	0.63821
939.21089	0.64502
937.28232	0.65134
935.35376	0.65698
933.42520	0.66212
931.49663	0.66722
929.56807	0.67281
927.63950	0.67874
925.71094	0.68472
923.78237	0.69096
921.85381	0.69741
919.92524	0.70400
917.99668	0.71116
916.06812	0.71924
914.13955	0.72760
912.21099	0.73531
910.28242	0.74271
908.35386	0.75077
906.42529	0.75975
904.49673	0.76934
902.56816	0.77912
900.63960	0.78868
898.71104	0.79766
896.78247	0.80634
894.85391	0.81628
892.92534	0.82802
890.99678	0.83920
889.06821	0.84931
887.13965	0.86043
885.21108	0.87194
883.28252	0.88249
881.35396	0.89324
879.42539	0.90554
877.49683	0.91899
875.56826	0.93204
873.63970	0.94293
871.71113	0.95178
869.78257	0.96165
867.85400	0.97394
865.92544	0.98575
863.99687	0.99671
862.06831	1.00970
860.13975	1.02351
858.21118	1.03547
856.28262	1.04647
854.35405	1.05860
852.42549	1.07152
850.49692	1.08390
848.56836	1.09627
846.63979	1.10909
844.71123	1.12051
842.78267	1.13045
840.85410	1.14223
838.92554	1.15667
836.99697	1.17049
835.06841	1.17998
833.13984	1.18860
831.21128	1.20098
829.28271	1.21312
827.35415	1.22341
825.42559	1.23247
823.49702	1.24108
821.56846	1.25161
819.63989	1.26374
817.71133	1.27798
815.78276	1.29560
813.85420	1.31667
811.92563	1.33261
809.99707	1.33528
808.06851	1.33757
806.13994	1.35403
804.21138	1.37732
802.28281	1.39129
800.35425	1.38853
798.42568	1.38160
796.49712	1.39631
794.56855	1.43019
792.63999	1.44357
790.71143	1.45781
788.78286	1.52968
786.85430	1.59212
784.92573	1.57880
782.99717	1.58232
781.06860	1.60486
779.14004	1.57220
777.21147	1.51595
775.28291	1.43130
773.35435	1.35495
771.42578	1.37076
769.49722	1.40732
767.56865	1.39908
765.64009	1.42217
763.71152	1.46910
761.78296	1.45358
759.85439	1.44718
757.92583	1.53794
755.99727	1.58313
754.06870	1.69653
752.14014	1.96480
750.21157	1.52024
748.28301	1.29143
746.35444	1.28719
744.42588	1.56882
742.49731	4.45498
740.56875	1.63759
738.64019	1.15531
736.71162	1.09513
734.78306	1.09140
732.85449	1.03273
730.92593	1.06621
728.99736	1.22101
727.06880	1.15029
725.14023	1.14059
723.21167	1.05806
721.28311	0.66826
719.35454	0.37368
717.42598	0.14782
715.49741	0.05655
713.56885	0.35797
711.64028	4.26984
709.71172	4.25827
707.78315	0.39117
705.85459	0.32955
703.92603	0.33769
701.99746	0.20419
700.06890	0.21469
698.14033	0.40315
696.21177	0.97746
694.28320	4.16570
692.35464	1.19068
690.42607	0.87532
688.49751	1.10701
686.56895	0.82640
684.64038	0.52828
682.71182	0.44480
680.78325	0.38436
678.85469	0.40930
676.92612	0.66945
674.99756	0.92499
673.06899	0.59719
671.14043	0.43611
669.21187	0.37085
667.28330	0.33931
665.35474	0.37865
663.42617	0.53990
661.49761	0.88228
659.56904	0.79443
657.64048	0.48066
655.71191	0.33796
653.78335	0.25552
651.85479	0.17738
649.92622	0.12283
647.99766	0.15903
646.06909	0.27272
644.14053	0.32276
642.21196	0.30991
640.28340	0.34493
638.35483	0.46171
636.42627	0.50342
634.49771	0.38132
632.56914	0.30361
630.64058	0.36751
628.71201	0.52687
626.78345	0.65888
624.85488	0.71492
622.92632	0.76366
620.99775	0.69933
619.06919	0.46260
617.14062	0.32869
615.21206	0.30649
613.28350	0.36901
611.35493	0.55651
609.42637	0.62258
607.49780	0.56132
605.56924	0.63174
603.64067	0.56549
601.71211	0.34845
599.78354	0.24160
597.85498	0.23306
595.92642	0.25563
593.99785	0.28315
592.06929	0.34311
590.14072	0.40265
588.21216	0.37886
586.28359	0.29909
584.35503	0.23243
582.42646	0.24146
580.49790	0.29107
578.56934	0.25957
576.64077	0.24766
574.71221	0.37389
572.78364	0.55453
570.85508	0.48127
568.92651	0.43543
566.99795	0.71266
565.06938	3.39042
563.14082	0.93367
561.21226	0.61595
559.28369	0.62232
557.35513	0.54353
555.42656	0.42163
553.49800	0.45957
551.56943	0.56414
549.64087	0.52947
547.71230	0.45017
545.78374	0.46087
543.85518	0.57346
541.92661	0.73344
539.99805	0.82494
538.06948	0.65920
536.14092	0.44830
534.21235	0.34606
532.28379	0.29114
530.35522	0.25041
528.42666	0.24975
526.49810	0.28258
524.56953	0.29316
522.64097	0.27724
520.71240	0.29206
518.78384	0.36855
516.85527	0.40619
514.92671	0.39390
512.99814	0.48770
511.06958	0.74005
509.14102	1.20478
507.21245	1.80445
505.28389	0.67356
503.35532	0.44296
501.42676	0.33956
499.49819	0.30241
