3997.91411	0.13124
3995.98555	0.13134
3994.05698	0.13191
3992.12842	0.13233
3990.19985	0.13243
3988.27129	0.13234
3986.34272	0.13222
3984.41416	0.13273
3982.48560	0.13360
3980.55703	0.13375
3978.62847	0.13347
3976.69990	0.13380
3974.77134	0.13471
3972.84277	0.13532
3970.91421	0.13520
3968.98564	0.13487
3967.05708	0.13486
3965.12852	0.13505
3963.19995	0.13543
3961.27139	0.13594
3959.34282	0.13603
3957.41426	0.13576
3955.48569	0.13568
3953.55713	0.13594
3951.62856	0.13652
3949.70000	0.13726
3947.77144	0.13753
3945.84287	0.13713
3943.91431	0.13702
3941.98574	0.13739
3940.05718	0.13722
3938.12861	0.13648
3936.20005	0.13594
3934.27148	0.13632
3932.34292	0.13769
3930.41436	0.13864
3928.48579	0.13807
3926.55723	0.13715
3924.62866	0.13708
3922.70010	0.13733
3920.77153	0.13701
3918.84297	0.13676
3916.91440	0.13704
3914.98584	0.13638
3913.05728	0.13435
3911.12871	0.13275
3909.20015	0.13277
3907.27158	0.13442
3905.34302	0.13736
3903.41445	0.14045
3901.48589	0.14161
3899.55732	0.14054
3897.62876	0.13836
3895.70020	0.13642
3893.77163	0.13631
3891.84307	0.13770
3889.91450	0.13757
3887.98594	0.13603
3886.05737	0.13650
3884.12881	0.13834
3882.20024	0.13926
3880.27168	0.13947
3878.34312	0.13821
3876.41455	0.13689
3874.48599	0.13802
3872.55742	0.14042
3870.62886	0.14227
3868.70029	0.14293
3866.77173	0.14196
3864.84316	0.14167
3862.91460	0.14230
3860.98604	0.14118
3859.05747	0.13951
3857.12891	0.14000
3855.20034	0.14286
3853.27178	0.14728
3851.34321	0.14829
3849.41465	0.14429
3847.48608	0.14131
3845.55752	0.14096
3843.62896	0.14286
3841.70039	0.14591
3839.77183	0.14890
3837.84326	0.15107
3835.91470	0.15098
3833.98613	0.14930
3832.05757	0.14799
3830.12900	0.14746
3828.20044	0.14766
3826.27187	0.14843
3824.34331	0.14965
3822.41475	0.15223
3820.48618	0.15620
3818.55762	0.15767
3816.62905	0.15685
3814.70049	0.15539
3812.77192	0.15291
3810.84336	0.15153
3808.91479	0.15274
3806.98623	0.15617
3805.05767	0.15921
3803.12910	0.16145
3801.20054	0.16514
3799.27197	0.16733
3797.34341	0.16625
3795.41484	0.16450
3793.48628	0.16267
3791.55771	0.16190
3789.62915	0.16261
3787.70059	0.16415
3785.77202	0.16645
3783.84346	0.16871
3781.91489	0.17002
3779.98633	0.17171
3778.05776	0.17370
3776.12920	0.17406
3774.20063	0.17412
3772.27207	0.17599
3770.34351	0.17980
3768.41494	0.18378
3766.48638	0.18621
3764.55781	0.18758
3762.62925	0.18836
3760.70068	0.19023
3758.77212	0.19435
3756.84355	0.19810
3754.91499	0.20026
3752.98643	0.20406
3751.05786	0.21148
3749.12930	0.21815
3747.20073	0.21957
3745.27217	0.22065
3743.34360	0.22335
3741.41504	0.22518
3739.48647	0.22682
3737.55791	0.23052
3735.62935	0.23780
3733.70078	0.24640
3731.77222	0.24998
3729.84365	0.25069
3727.91509	0.25335
3725.98652	0.25873
3724.05796	0.26517
3722.12939	0.27152
3720.20083	0.27768
3718.27227	0.28322
3716.34370	0.28903
3714.41514	0.29645
3712.48657	0.30766
3710.55801	0.32382
3708.62944	0.33801
3706.70088	0.34707
3704.77231	0.35643
3702.84375	0.36920
3700.91519	0.38613
3698.98662	0.40383
3697.05806	0.42069
3695.12949	0.43930
3693.20093	0.45974
3691.27236	0.48321
3689.34380	0.51368
3687.41523	0.54772
3685.48667	0.57512
3683.55811	0.59914
3681.62954	0.62647
3679.70098	0.65890
3677.77241	0.69446
3675.84385	0.73691
3673.91528	0.79089
3671.98672	0.83271
3670.05815	0.87059
3668.12959	0.92247
3666.20103	0.96828
3664.27246	1.00687
3662.34390	1.04976
3660.41533	1.09695
3658.48677	1.14400
3656.55820	1.19457
3654.62964	1.25060
3652.70107	1.29767
3650.77251	1.34016
3648.84395	1.39922
3646.91538	1.46752
3644.98682	1.51440
3643.05825	1.55085
3641.12969	1.59014
3639.20112	1.63461
3637.27256	1.67989
3635.34399	1.72452
3633.41543	1.76955
3631.48687	1.81176
3629.55830	1.85490
3627.62974	1.90972
3625.70117	1.95750
3623.77261	1.98932
3621.84404	2.02187
3619.91548	2.06154
3617.98691	2.11025
3616.05835	2.15553
3614.12979	2.19248
3612.20122	2.23164
3610.27266	2.27132
3608.34409	2.31165
3606.41553	2.35428
3604.48696	2.39337
3602.55840	2.42914
3600.62983	2.46859
3598.70127	2.51074
3596.77271	2.55080
3594.84414	2.59155
3592.91558	2.63441
3590.98701	2.67505
3589.05845	2.71319
3587.12988	2.75799
3585.20132	2.80645
3583.27275	2.84782
3581.34419	2.88618
3579.41562	2.92658
3577.48706	2.96875
3575.55850	3.01103
3573.62993	3.05376
3571.70137	3.09590
3569.77280	3.13808
3567.84424	3.18493
3565.91567	3.24093
3563.98711	3.29153
3562.05854	3.33126
3560.12998	3.37330
3558.20142	3.42024
3556.27285	3.46643
3554.34429	3.51091
3552.41572	3.55918
3550.48716	3.60862
3548.55859	3.65406
3546.63003	3.69875
3544.70146	3.74660
3542.77290	3.79360
3540.84434	3.83918
3538.91577	3.88841
3536.98721	3.93938
3535.05864	3.99058
3533.13008	4.04157
3531.20151	4.09123
3529.27295	4.14042
3527.34438	4.19045
3525.41582	4.23876
3523.48726	4.28542
3521.55869	4.33474
3519.63013	4.38491
3517.70156	4.43337
3515.77300	4.48227
3513.84443	4.53192
3511.91587	4.57888
3509.98730	4.62570
3508.05874	4.67259
3506.13018	4.71593
3504.20161	4.76397
3502.27305	4.82395
3500.34448	4.88063
3498.41592	4.92343
3496.48735	4.96710
3494.55879	5.02000
3492.63022	5.07320
3490.70166	5.11711
3488.77310	5.15820
3486.84453	5.20959
3484.91597	5.26865
3482.98740	5.32219
3481.05884	5.37239
3479.13027	5.42859
3477.20171	5.48217
3475.27314	5.52459
3473.34458	5.56510
3471.41602	5.61295
3469.48745	5.66199
3467.55889	5.71130
3465.63032	5.77222
3463.70176	5.83603
3461.77319	5.88432
3459.84463	5.92767
3457.91606	5.97748
3455.98750	6.03267
3454.05894	6.08334
3452.13037	6.12066
3450.20181	6.16573
3448.27324	6.22776
3446.34468	6.28658
3444.41611	6.33148
3442.48755	6.37214
3440.55898	6.41803
3438.63042	6.47808
3436.70186	6.54152
3434.77329	6.58795
3432.84473	6.63027
3430.91616	6.68874
3428.98760	6.74809
3427.05903	6.79234
3425.13047	6.85435
3423.20190	6.92726
3421.27334	6.97522
3419.34478	7.01582
3417.41621	7.07623
3415.48765	7.12090
3413.55908	7.11676
3411.63052	7.12904
3409.70195	7.20047
3407.77339	7.30610
3405.84482	7.39586
3403.91626	7.45324
3401.98770	7.48597
3400.05913	7.48448
3398.13057	7.47261
3396.20200	7.49086
3394.27344	7.54979
3392.34487	7.62176
3390.41631	7.67975
3388.48774	7.72711
3386.55918	7.80299
3384.63062	7.85869
3382.70205	7.85782
3380.77349	7.84694
3378.84492	7.83598
3376.91636	7.87850
3374.98779	7.96209
3373.05923	8.03389
3371.13066	8.12462
3369.20210	8.18576
3367.27354	8.11467
3365.34497	8.04538
3363.41641	8.10193
3361.48784	8.19898
3359.55928	8.25490
3357.63071	8.28620
3355.70215	8.28682
3353.77358	8.21309
3351.84502	8.15851
3349.91646	8.17780
3347.98789	8.22482
3346.05933	8.27407
3344.13076	8.34193
3342.20220	8.38795
3340.27363	8.32710
3338.34507	8.29762
3336.41650	8.39550
3334.48794	8.47113
3332.55937	8.41409
3330.63081	8.38626
3328.70225	8.41841
3326.77368	8.39310
3324.84512	8.36139
3322.91655	8.33364
3320.98799	8.29311
3319.05942	8.30158
3317.13086	8.34698
3315.20229	8.34809
3313.27373	8.35810
3311.34517	8.42415
3309.41660	8.52895
3307.48804	8.71105
3305.55947	8.81296
3303.63091	8.61847
3301.70234	8.34091
3299.77378	8.23943
3297.84521	8.31866
3295.91665	8.45004
3293.98809	8.50988
3292.05952	8.54085
3290.13096	8.57504
3288.20239	8.55583
3286.27383	8.58035
3284.34526	8.65048
3282.41670	8.65955
3280.48813	8.65948
3278.55957	8.72840
3276.63101	8.74488
3274.70244	8.63524
3272.77388	8.58257
3270.84531	8.65417
3268.91675	8.69250
3266.98818	8.63153
3265.05962	8.61798
3263.13105	8.67075
3261.20249	8.64045
3259.27393	8.56304
3257.34536	8.60376
3255.41680	8.69499
3253.48823	8.67344
3251.55967	8.53697
3249.63110	8.42819
3247.70254	8.42625
3245.77397	8.42353
3243.84541	8.40683
3241.91685	8.48175
3239.98828	8.61374
3238.05972	8.62729
3236.13115	8.51915
3234.20259	8.45949
3232.27402	8.46756
3230.34546	8.48383
3228.41689	8.54528
3226.48833	8.62856
3224.55977	8.59337
3222.63120	8.55480
3220.70264	8.63245
3218.77407	8.70752
3216.84551	8.73394
3214.91694	8.66163
3212.98838	8.42854
3211.05981	8.23605
3209.13125	8.18021
3207.20269	8.16917
3205.27412	8.18220
3203.34556	8.18134
3201.41699	8.15069
3199.48843	8.19487
3197.55986	8.25995
3195.63130	8.20461
3193.70273	8.08804
3191.77417	7.95662
3189.84561	7.78375
3187.91704	7.66638
3185.98848	7.68888
3184.05991	7.74423
3182.13135	7.71812
3180.20278	7.66275
3178.27422	7.59999
3176.34565	7.51865
3174.41709	7.42804
3172.48853	7.34360
3170.55996	7.28665
3168.63140	7.23911
3166.70283	7.17312
3164.77427	7.09694
3162.84570	7.04693
3160.91714	7.00960
3158.98857	6.94083
3157.06001	6.85036
3155.13145	6.75900
3153.20288	6.68262
3151.27432	6.62721
3149.34575	6.58075
3147.41719	6.52989
3145.48862	6.45328
3143.56006	6.35383
3141.63149	6.25180
3139.70293	6.15755
3137.77437	6.08899
3135.84580	6.04007
3133.91724	5.98798
3131.98867	5.93093
3130.06011	5.86056
3128.13154	5.77405
3126.20298	5.69658
3124.27441	5.63314
3122.34585	5.56297
3120.41729	5.48546
3118.48872	5.41286
3116.56016	5.34673
3114.63159	5.28063
3112.70303	5.21238
3110.77446	5.14700
3108.84590	5.08076
3106.91733	5.00665
3104.98877	4.93071
3103.06021	4.85759
3101.13164	4.78283
3099.20308	4.70865
3097.27451	4.64300
3095.34595	4.58512
3093.41738	4.52268
3091.48882	4.45238
3089.56025	4.38500
3087.63169	4.32271
3085.70312	4.26030
3083.77456	4.19758
3081.84600	4.13754
3079.91743	4.07876
3077.98887	4.01841
3076.06030	3.95745
3074.13174	3.89595
3072.20317	3.83476
3070.27461	3.77570
3068.34604	3.71895
3066.41748	3.66479
3064.48892	3.61009
3062.56035	3.55154
3060.63179	3.49290
3058.70322	3.43738
3056.77466	3.38340
3054.84609	3.32980
3052.91753	3.27661
3050.98896	3.22330
3049.06040	3.17003
3047.13184	3.11802
3045.20327	3.06711
3043.27471	3.01758
3041.34614	2.97004
3039.41758	2.92300
3037.48901	2.87533
3035.56045	2.82730
3033.63188	2.77967
3031.70332	2.73322
3029.77476	2.68797
3027.84619	2.64339
3025.91763	2.59932
3023.98906	2.55562
3022.06050	2.51174
3020.13193	2.46844
3018.20337	2.42687
3016.27480	2.38657
3014.34624	2.34684
3012.41768	2.30704
3010.48911	2.26679
3008.56055	2.22722
3006.63198	2.18945
3004.70342	2.15337
3002.77485	2.11829
3000.84629	2.08349
2998.91772	2.04841
2996.98916	2.01367
2995.06060	1.98078
2993.13203	1.94958
2991.20347	1.91868
2989.27490	1.88792
2987.34634	1.85789
2985.41777	1.82902
2983.48921	1.80083
2981.56064	1.77247
2979.63208	1.74434
2977.70352	1.71752
2975.77495	1.69197
2973.84639	1.66645
2971.91782	1.64061
2969.98926	1.61483
2968.06069	1.58897
2966.13213	1.56369
2964.20356	1.53984
2962.27500	1.51638
2960.34644	1.49218
2958.41787	1.46777
2956.48931	1.44348
2954.56074	1.41890
2952.63218	1.39443
2950.70361	1.37042
2948.77505	1.34689
2946.84648	1.32424
2944.91792	1.30237
2942.98936	1.28067
2941.06079	1.25911
2939.13223	1.23791
2937.20366	1.21702
2935.27510	1.19624
2933.34653	1.17523
2931.41797	1.15403
2929.48940	1.13325
2927.56084	1.11307
2925.63228	1.09318
2923.70371	1.07388
2921.77515	1.05533
2919.84658	1.03726
2917.91802	1.01979
2915.98945	1.00335
2914.06089	0.98784
2912.13232	0.97259
2910.20376	0.95713
2908.27520	0.94137
2906.34663	0.92591
2904.41807	0.91086
2902.48950	0.89597
2900.56094	0.88148
2898.63237	0.86743
2896.70381	0.85384
2894.77524	0.84084
2892.84668	0.82810
2890.91812	0.81554
2888.98955	0.80374
2887.06099	0.79266
2885.13242	0.78160
2883.20386	0.77059
2881.27529	0.76028
2879.34673	0.75035
2877.41816	0.73998
2875.48960	0.72959
2873.56104	0.71945
2871.63247	0.70877
2869.70391	0.69721
2867.77534	0.68514
2865.84678	0.67285
2863.91821	0.66024
2861.98965	0.64744
2860.06108	0.63515
2858.13252	0.62395
2856.20396	0.61363
2854.27539	0.60349
2852.34683	0.59370
2850.41826	0.58499
2848.48970	0.57690
2846.56113	0.56858
2844.63257	0.56054
2842.70400	0.55340
2840.77544	0.54677
2838.84687	0.54019
2836.91831	0.53366
2834.98975	0.52736
2833.06118	0.52109
2831.13262	0.51450
2829.20405	0.50786
2827.27549	0.50155
2825.34692	0.49528
2823.41836	0.48877
2821.48979	0.48228
2819.56123	0.47593
2817.63267	0.46974
2815.70410	0.46369
2813.77554	0.45776
2811.84697	0.45199
2809.91841	0.44629
2807.98984	0.44057
2806.06128	0.43493
2804.13271	0.42935
2802.20415	0.42373
2800.27559	0.41824
2798.34702	0.41299
2796.41846	0.40789
2794.48989	0.40291
2792.56133	0.39798
2790.63276	0.39319
2788.70420	0.38859
2786.77563	0.38399
2784.84707	0.37932
2782.91851	0.37472
2780.98994	0.37030
2779.06138	0.36606
2777.13281	0.36178
2775.20425	0.35743
2773.27568	0.35334
2771.34712	0.34956
2769.41855	0.34574
2767.48999	0.34186
2765.56143	0.33796
2763.63286	0.33411
2761.70430	0.33051
2759.77573	0.32703
2757.84717	0.32352
2755.91860	0.31994
2753.99004	0.31641
2752.06147	0.31315
2750.13291	0.31015
2748.20435	0.30718
2746.27578	0.30418
2744.34722	0.30117
2742.41865	0.29814
2740.49009	0.29516
2738.56152	0.29231
2736.63296	0.28962
2734.70439	0.28701
2732.77583	0.28431
2730.84727	0.28162
2728.91870	0.27906
2726.99014	0.27655
2725.06157	0.27403
2723.13301	0.27159
2721.20444	0.26934
2719.27588	0.26719
2717.34731	0.26508
2715.41875	0.26307
2713.49019	0.26112
2711.56162	0.25921
2709.63306	0.25729
2707.70449	0.25538
2705.77593	0.25354
2703.84736	0.25184
2701.91880	0.25027
2699.99023	0.24864
2698.06167	0.24690
2696.13311	0.24526
2694.20454	0.24375
2692.27598	0.24220
2690.34741	0.24058
2688.41885	0.23905
2686.49028	0.23777
2684.56172	0.23663
2682.63315	0.23538
2680.70459	0.23397
2678.77603	0.23255
2676.84746	0.23128
2674.91890	0.23007
2672.99033	0.22887
2671.06177	0.22763
2669.13320	0.22634
2667.20464	0.22505
2665.27607	0.22388
2663.34751	0.22292
2661.41895	0.22203
2659.49038	0.22113
2657.56182	0.22032
2655.63325	0.21948
2653.70469	0.21854
2651.77612	0.21764
2649.84756	0.21686
2647.91899	0.21613
2645.99043	0.21539
2644.06187	0.21464
2642.13330	0.21382
2640.20474	0.21301
2638.27617	0.21233
2636.34761	0.21176
2634.41904	0.21135
2632.49048	0.21110
2630.56191	0.21069
2628.63335	0.21003
2626.70479	0.20940
2624.77622	0.20891
2622.84766	0.20858
2620.91909	0.20837
2618.99053	0.20817
2617.06196	0.20786
2615.13340	0.20748
2613.20483	0.20707
2611.27627	0.20659
2609.34771	0.20621
2607.41914	0.20599
2605.49058	0.20581
2603.56201	0.20560
2601.63345	0.20538
2599.70488	0.20528
2597.77632	0.20533
2595.84775	0.20537
2593.91919	0.20535
2591.99062	0.20544
2590.06206	0.20556
2588.13350	0.20550
2586.20493	0.20538
2584.27637	0.20545
2582.34780	0.20570
2580.41924	0.20607
2578.49067	0.20644
2576.56211	0.20663
2574.63354	0.20665
2572.70498	0.20668
2570.77642	0.20687
2568.84785	0.20722
2566.91929	0.20768
2564.99072	0.20810
2563.06216	0.20837
2561.13359	0.20853
2559.20503	0.20880
2557.27646	0.20928
2555.34790	0.20983
2553.41934	0.21033
2551.49077	0.21072
2549.56221	0.21110
2547.63364	0.21155
2545.70508	0.21199
2543.77651	0.21244
2541.84795	0.21291
2539.91938	0.21340
2537.99082	0.21390
2536.06226	0.21451
2534.13369	0.21525
2532.20513	0.21590
2530.27656	0.21643
2528.34800	0.21704
2526.41943	0.21773
2524.49087	0.21833
2522.56230	0.21897
2520.63374	0.21967
2518.70518	0.22044
2516.77661	0.22134
2514.84805	0.22215
2512.91948	0.22275
2510.99092	0.22337
2509.06235	0.22403
2507.13379	0.22467
2505.20522	0.22534
2503.27666	0.22611
2501.34810	0.22698
2499.41953	0.22793
2497.49097	0.22879
2495.56240	0.22946
2493.63384	0.23013
2491.70527	0.23097
2489.77671	0.23185
2487.84814	0.23264
2485.91958	0.23336
2483.99102	0.23410
2482.06245	0.23492
2480.13389	0.23571
2478.20532	0.23644
2476.27676	0.23723
2474.34819	0.23810
2472.41963	0.23898
2470.49106	0.23986
2468.56250	0.24075
2466.63394	0.24159
2464.70537	0.24243
2462.77681	0.24337
2460.84824	0.24423
2458.91968	0.24496
2456.99111	0.24582
2455.06255	0.24686
2453.13398	0.24785
2451.20542	0.24871
2449.27686	0.24956
2447.34829	0.25051
2445.41973	0.25158
2443.49116	0.25256
2441.56260	0.25346
2439.63403	0.25442
2437.70547	0.25533
2435.77690	0.25611
2433.84834	0.25698
2431.91978	0.25812
2429.99121	0.25938
2428.06265	0.26051
2426.13408	0.26144
2424.20552	0.26233
2422.27695	0.26330
2420.34839	0.26431
2418.41982	0.26538
2416.49126	0.26650
2414.56270	0.26762
2412.63413	0.26870
2410.70557	0.26972
2408.77700	0.27072
2406.84844	0.27185
2404.91987	0.27309
2402.99131	0.27434
2401.06274	0.27563
2399.13418	0.27686
2397.20562	0.27799
2395.27705	0.27915
2393.34849	0.28042
2391.41992	0.28168
2389.49136	0.28295
2387.56279	0.28446
2385.63423	0.28645
2383.70566	0.28895
2381.77710	0.29194
2379.84854	0.29537
2377.91997	0.29920
2375.99141	0.30348
2374.06284	0.30837
2372.13428	0.31396
2370.20571	0.31998
2368.27715	0.32559
2366.34858	0.33030
2364.42002	0.33491
2362.49146	0.34006
2360.56289	0.34429
2358.63433	0.34560
2356.70576	0.34446
2354.77720	0.34227
2352.84863	0.33923
2350.92007	0.33554
2348.99150	0.33323
2347.06294	0.33393
2345.13437	0.33809
2343.20581	0.34380
2341.27725	0.34712
2339.34868	0.34787
2337.42012	0.34816
2335.49155	0.34917
2333.56299	0.35084
2331.63442	0.35257
2329.70586	0.35372
2327.77729	0.35423
2325.84873	0.35448
2323.92017	0.35484
2321.99160	0.35506
2320.06304	0.35487
2318.13447	0.35444
2316.20591	0.35418
2314.27734	0.35457
2312.34878	0.35550
2310.42021	0.35644
2308.49165	0.35704
2306.56309	0.35745
2304.63452	0.35802
2302.70596	0.35889
2300.77739	0.35982
2298.84883	0.36072
2296.92026	0.36184
2294.99170	0.36315
2293.06313	0.36439
2291.13457	0.36573
2289.20601	0.36738
2287.27744	0.36903
2285.34888	0.37042
2283.42031	0.37187
2281.49175	0.37367
2279.56318	0.37571
2277.63462	0.37791
2275.70605	0.38025
2273.77749	0.38245
2271.84893	0.38434
2269.92036	0.38620
2267.99180	0.38822
2266.06323	0.39033
2264.13467	0.39244
2262.20610	0.39466
2260.27754	0.39686
2258.34897	0.39887
2256.42041	0.40084
2254.49185	0.40288
2252.56328	0.40493
2250.63472	0.40705
2248.70615	0.40934
2246.77759	0.41166
2244.84902	0.41387
2242.92046	0.41599
2240.99189	0.41806
2239.06333	0.42012
2237.13477	0.42216
2235.20620	0.42425
2233.27764	0.42650
2231.34907	0.42881
2229.42051	0.43108
2227.49194	0.43327
2225.56338	0.43538
2223.63481	0.43754
2221.70625	0.43985
2219.77769	0.44220
2217.84912	0.44439
2215.92056	0.44645
2213.99199	0.44852
2212.06343	0.45067
2210.13486	0.45282
2208.20630	0.45493
2206.27773	0.45709
2204.34917	0.45930
2202.42061	0.46149
2200.49204	0.46355
2198.56348	0.46541
2196.63491	0.46720
2194.70635	0.46909
2192.77778	0.47103
2190.84922	0.47301
2188.92065	0.47497
2186.99209	0.47682
2185.06353	0.47853
2183.13496	0.48011
2181.20640	0.48163
2179.27783	0.48315
2177.34927	0.48473
2175.42070	0.48641
2173.49214	0.48805
2171.56357	0.48960
2169.63501	0.49108
2167.70645	0.49235
2165.77788	0.49352
2163.84932	0.49473
2161.92075	0.49583
2159.99219	0.49673
2158.06362	0.49758
2156.13506	0.49846
2154.20649	0.49937
2152.27793	0.50026
2150.34937	0.50099
2148.42080	0.50155
2146.49224	0.50207
2144.56367	0.50243
2142.63511	0.50257
2140.70654	0.50277
2138.77798	0.50311
2136.84941	0.50333
2134.92085	0.50340
2132.99229	0.50333
2131.06372	0.50312
2129.13516	0.50287
2127.20659	0.50256
2125.27803	0.50208
2123.34946	0.50154
2121.42090	0.50104
2119.49233	0.50038
2117.56377	0.49950
2115.63521	0.49854
2113.70664	0.49765
2111.77808	0.49675
2109.84951	0.49574
2107.92095	0.49464
2105.99238	0.49345
2104.06382	0.49219
2102.13525	0.49079
2100.20669	0.48926
2098.27812	0.48769
2096.34956	0.48610
2094.42100	0.48451
2092.49243	0.48284
2090.56387	0.48100
2088.63530	0.47902
2086.70674	0.47712
2084.77817	0.47529
2082.84961	0.47337
2080.92104	0.47131
2078.99248	0.46910
2077.06392	0.46674
2075.13535	0.46438
2073.20679	0.46211
2071.27822	0.45974
2069.34966	0.45720
2067.42109	0.45471
2065.49253	0.45241
2063.56396	0.45001
2061.63540	0.44740
2059.70684	0.44474
2057.77827	0.44202
2055.84971	0.43922
2053.92114	0.43644
2051.99258	0.43377
2050.06401	0.43113
2048.13545	0.42842
2046.20688	0.42566
2044.27832	0.42296
2042.34976	0.42023
2040.42119	0.41732
2038.49263	0.41432
2036.56406	0.41145
2034.63550	0.40864
2032.70693	0.40572
2030.77837	0.40272
2028.84980	0.39970
2026.92124	0.39677
2024.99268	0.39398
2023.06411	0.39120
2021.13555	0.38834
2019.20698	0.38558
2017.27842	0.38287
2015.34985	0.37985
2013.42129	0.37669
2011.49272	0.37372
2009.56416	0.37088
2007.63560	0.36804
2005.70703	0.36521
2003.77847	0.36244
2001.84990	0.35971
1999.92134	0.35695
1997.99277	0.35420
1996.06421	0.35160
1994.13564	0.34925
1992.20708	0.34691
1990.27852	0.34424
1988.34995	0.34143
1986.42139	0.33864
1984.49282	0.33588
1982.56426	0.33328
1980.63569	0.33091
1978.70713	0.32868
1976.77856	0.32642
1974.85000	0.32408
1972.92144	0.32170
1970.99287	0.31945
1969.06431	0.31753
1967.13574	0.31564
1965.20718	0.31336
1963.27861	0.31102
1961.35005	0.30895
1959.42148	0.30699
1957.49292	0.30507
1955.56436	0.30322
1953.63579	0.30139
1951.70723	0.29954
1949.77866	0.29778
1947.85010	0.29616
1945.92153	0.29473
1943.99297	0.29354
1942.06440	0.29223
1940.13584	0.29034
1938.20728	0.28834
1936.27871	0.28674
1934.35015	0.28537
1932.42158	0.28402
1930.49302	0.28272
1928.56445	0.28151
1926.63589	0.28042
1924.70732	0.27975
1922.77876	0.27931
1920.85020	0.27842
1918.92163	0.27735
1916.99307	0.27626
1915.06450	0.27483
1913.13594	0.27354
1911.20737	0.27284
1909.27881	0.27234
1907.35024	0.27158
1905.42168	0.27069
1903.49312	0.26993
1901.56455	0.26927
1899.63599	0.26867
1897.70742	0.26827
1895.77886	0.26806
1893.85029	0.26770
1891.92173	0.26724
1889.99316	0.26715
1888.06460	0.26693
1886.13604	0.26636
1884.20747	0.26592
1882.27891	0.26557
1880.35034	0.26520
1878.42178	0.26493
1876.49321	0.26482
1874.56465	0.26477
1872.63608	0.26499
1870.70752	0.26587
1868.77896	0.26730
1866.85039	0.26768
1864.92183	0.26670
1862.99326	0.26598
1861.06470	0.26603
1859.13613	0.26639
1857.20757	0.26656
1855.27900	0.26676
1853.35044	0.26714
1851.42187	0.26776
1849.49331	0.26860
1847.56475	0.26967
1845.63618	0.27104
1843.70762	0.27235
1841.77905	0.27261
1839.85049	0.27239
1837.92192	0.27295
1835.99336	0.27390
1834.06479	0.27481
1832.13623	0.27615
1830.20767	0.27828
1828.27910	0.27995
1826.35054	0.28063
1824.42197	0.28156
1822.49341	0.28242
1820.56484	0.28320
1818.63628	0.28440
1816.70771	0.28600
1814.77915	0.28765
1812.85059	0.28973
1810.92202	0.29229
1808.99346	0.29437
1807.06489	0.29579
1805.13633	0.29736
1803.20776	0.29983
1801.27920	0.30294
1799.35063	0.30595
1797.42207	0.30828
1795.49351	0.31065
1793.56494	0.31393
1791.63638	0.31801
1789.70781	0.32090
1787.77925	0.32267
1785.85068	0.32553
1783.92212	0.32940
1781.99355	0.33355
1780.06499	0.33782
1778.13643	0.34196
1776.20786	0.34607
1774.27930	0.35112
1772.35073	0.35803
1770.42217	0.36441
1768.49360	0.36881
1766.56504	0.37315
1764.63647	0.37818
1762.70791	0.38443
1760.77935	0.39230
1758.85078	0.39925
1756.92222	0.40604
1754.99365	0.41345
1753.06509	0.42063
1751.13652	0.43003
1749.20796	0.44175
1747.27939	0.45224
1745.35083	0.46091
1743.42227	0.47015
1741.49370	0.48051
1739.56514	0.49284
1737.63657	0.50518
1735.70801	0.51648
1733.77944	0.53407
1731.85088	0.55400
1729.92231	0.56860
1727.99375	0.58329
1726.06519	0.59975
1724.13662	0.61864
1722.20806	0.63919
1720.27949	0.65835
1718.35093	0.68153
1716.42236	0.71517
1714.49380	0.74536
1712.56523	0.76912
1710.63667	0.79281
1708.70811	0.81900
1706.77954	0.84937
1704.85098	0.88584
1702.92241	0.91848
1700.99385	0.95122
1699.06528	1.00013
1697.13672	1.04452
1695.20815	1.08897
1693.27959	1.13234
1691.35103	1.16814
1689.42246	1.21066
1687.49390	1.25613
1685.56533	1.30061
1683.63677	1.36943
1681.70820	1.43943
1679.77964	1.48278
1677.85107	1.52463
1675.92251	1.57366
1673.99395	1.63530
1672.06538	1.69118
1670.13682	1.74600
1668.20825	1.81611
1666.27969	1.87261
1664.35112	1.92190
1662.42256	1.98634
1660.49399	2.06240
1658.56543	2.12260
1656.63687	2.17049
1654.70830	2.21346
1652.77974	2.27724
1650.85117	2.33462
1648.92261	2.35251
1646.99404	2.37672
1645.06548	2.40041
1643.13691	2.41569
1641.20835	2.42294
1639.27979	2.43005
1637.35122	2.43563
1635.42266	2.43220
1633.49409	2.41649
1631.56553	2.39774
1629.63696	2.37891
1627.70840	2.34778
1625.77983	2.31120
1623.85127	2.26562
1621.92271	2.21057
1619.99414	2.16211
1618.06558	2.11571
1616.13701	2.04932
1614.20845	1.98009
1612.27988	1.92693
1610.35132	1.87319
1608.42275	1.81652
1606.49419	1.76029
1604.56562	1.70760
1602.63706	1.65681
1600.70850	1.60809
1598.77993	1.56395
1596.85137	1.52299
1594.92280	1.48343
1592.99424	1.44489
1591.06567	1.40937
1589.13711	1.37649
1587.20854	1.34675
1585.27998	1.31999
1583.35142	1.29545
1581.42285	1.27342
1579.49429	1.25507
1577.56572	1.23953
1575.63716	1.22111
1573.70859	1.20430
1571.78003	1.19376
1569.85146	1.18425
1567.92290	1.17398
1565.99434	1.16688
1564.06577	1.16295
1562.13721	1.16123
1560.20864	1.16346
1558.28008	1.17233
1556.35151	1.17846
1554.42295	1.18060
1552.49438	1.18328
1550.56582	1.18467
1548.63726	1.18332
1546.70869	1.17898
1544.78013	1.17120
1542.85156	1.15966
1540.92300	1.14098
1538.99443	1.10804
1537.06587	1.08248
1535.13730	1.06589
1533.20874	1.04397
1531.28018	1.01980
1529.35161	1.00253
1527.42305	0.98719
1525.49448	0.97134
1523.56592	0.95799
1521.63735	0.94562
1519.70879	0.93247
1517.78022	0.92098
1515.85166	0.90719
1513.92310	0.89217
1511.99453	0.87976
1510.06597	0.86984
1508.13740	0.86074
1506.20884	0.84354
1504.28027	0.82638
1502.35171	0.81715
1500.42314	0.81012
1498.49458	0.80299
1496.56602	0.79410
1494.63745	0.78468
1492.70889	0.77784
1490.78032	0.77283
1488.85176	0.76694
1486.92319	0.76017
1484.99463	0.75448
1483.06606	0.75028
1481.13750	0.74717
1479.20894	0.74514
1477.28037	0.74463
1475.35181	0.74553
1473.42324	0.74718
1471.49468	0.74716
1469.56611	0.74445
1467.63755	0.74183
1465.70898	0.74059
1463.78042	0.73986
1461.85186	0.73917
1459.92329	0.73967
1457.99473	0.74189
1456.06616	0.74283
1454.13760	0.73953
1452.20903	0.73567
1450.28047	0.73255
1448.35190	0.72998
1446.42334	0.72702
1444.49478	0.72365
1442.56621	0.72055
1440.63765	0.71767
1438.70908	0.71503
1436.78052	0.71203
1434.85195	0.70799
1432.92339	0.70436
1430.99482	0.70217
1429.06626	0.70117
1427.13770	0.70098
1425.20913	0.70183
1423.28057	0.70338
1421.35200	0.70464
1419.42344	0.70576
1417.49487	0.70601
1415.56631	0.70472
1413.63774	0.70356
1411.70918	0.70336
1409.78062	0.70418
1407.85205	0.70585
1405.92349	0.70798
1403.99492	0.70952
1402.06636	0.70987
1400.13779	0.70969
1398.20923	0.70867
1396.28066	0.70595
1394.35210	0.70137
1392.42354	0.69586
1390.49497	0.69104
1388.56641	0.68670
1386.63784	0.68140
1384.70928	0.67516
1382.78071	0.66928
1380.85215	0.66414
1378.92358	0.65988
1376.99502	0.65681
1375.06646	0.65505
1373.13789	0.65388
1371.20933	0.65273
1369.28076	0.65176
1367.35220	0.65048
1365.42363	0.64883
1363.49507	0.64747
1361.56650	0.64586
1359.63794	0.64367
1357.70937	0.64177
1355.78081	0.64026
1353.85225	0.63888
1351.92368	0.63770
1349.99512	0.63683
1348.06655	0.63593
1346.13799	0.63476
1344.20942	0.63381
1342.28086	0.63350
1340.35229	0.63364
1338.42373	0.63329
1336.49517	0.63225
1334.56660	0.63131
1332.63804	0.63088
1330.70947	0.63100
1328.78091	0.63154
1326.85234	0.63223
1324.92378	0.63305
1322.99521	0.63416
1321.06665	0.63551
1319.13809	0.63672
1317.20952	0.63733
1315.28096	0.63739
1313.35239	0.63709
1311.42383	0.63633
1309.49526	0.63534
1307.56670	0.63444
1305.63813	0.63361
1303.70957	0.63285
1301.78101	0.63204
1299.85244	0.63093
1297.92388	0.62960
1295.99531	0.62823
1294.06675	0.62686
1292.13818	0.62545
1290.20962	0.62396
1288.28105	0.62239
1286.35249	0.62075
1284.42393	0.61911
1282.49536	0.61741
1280.56680	0.61562
1278.63823	0.61386
1276.70967	0.61224
1274.78110	0.61095
1272.85254	0.61019
1270.92397	0.60973
1268.99541	0.60899
1267.06685	0.60787
1265.13828	0.60661
1263.20972	0.60552
1261.28115	0.60472
1259.35259	0.60403
1257.42402	0.60324
1255.49546	0.60261
1253.56689	0.60243
1251.63833	0.60252
1249.70977	0.60258
1247.78120	0.60243
1245.85264	0.60211
1243.92407	0.60162
1241.99551	0.60070
1240.06694	0.59921
1238.13838	0.59718
1236.20981	0.59470
1234.28125	0.59204
1232.35269	0.58936
1230.42412	0.58677
1228.49556	0.58440
1226.56699	0.58214
1224.63843	0.57980
1222.70986	0.57742
1220.78130	0.57521
1218.85273	0.57333
1216.92417	0.57186
1214.99561	0.57058
1213.06704	0.56944
1211.13848	0.56851
1209.20991	0.56762
1207.28135	0.56671
1205.35278	0.56584
1203.42422	0.56486
1201.49565	0.56368
1199.56709	0.56250
1197.63853	0.56141
1195.70996	0.56042
1193.78140	0.55959
1191.85283	0.55881
1189.92427	0.55816
1187.99570	0.55771
1186.06714	0.55727
1184.13857	0.55708
1182.21001	0.55750
1180.28145	0.55855
1178.35288	0.56008
1176.42432	0.56192
1174.49575	0.56379
1172.56719	0.56519
1170.63862	0.56579
1168.71006	0.56588
1166.78149	0.56603
1164.85293	0.56636
1162.92437	0.56670
1160.99580	0.56691
1159.06724	0.56686
1157.13867	0.56640
1155.21011	0.56545
1153.28154	0.56403
1151.35298	0.56218
1149.42441	0.55976
1147.49585	0.55684
1145.56729	0.55383
1143.63872	0.55098
1141.71016	0.54838
1139.78159	0.54621
1137.85303	0.54463
1135.92446	0.54382
1133.99590	0.54380
1132.06733	0.54409
1130.13877	0.54428
1128.21021	0.54449
1126.28164	0.54461
1124.35308	0.54432
1122.42451	0.54387
1120.49595	0.54374
1118.56738	0.54403
1116.63882	0.54460
1114.71025	0.54520
1112.78169	0.54577
1110.85312	0.54645
1108.92456	0.54728
1106.99600	0.54814
1105.06743	0.54908
1103.13887	0.55009
1101.21030	0.55116
1099.28174	0.55259
1097.35317	0.55455
1095.42461	0.55696
1093.49604	0.56026
1091.56748	0.56499
1089.63892	0.57109
1087.71035	0.57842
1085.78179	0.58671
1083.85322	0.59516
1081.92466	0.60273
1079.99609	0.60839
1078.06753	0.61101
1076.13896	0.61033
1074.21040	0.60705
1072.28184	0.60178
1070.35327	0.59510
1068.42471	0.58781
1066.49614	0.58067
1064.56758	0.57431
1062.63901	0.56901
1060.71045	0.56456
1058.78188	0.56050
1056.85332	0.55659
1054.92476	0.55297
1052.99619	0.54967
1051.06763	0.54691
1049.13906	0.54503
1047.21050	0.54382
1045.28193	0.54290
1043.35337	0.54225
1041.42480	0.54191
1039.49624	0.54178
1037.56768	0.54158
1035.63911	0.54113
1033.71055	0.54056
1031.78198	0.53993
1029.85342	0.53878
1027.92485	0.53685
1025.99629	0.53479
1024.06772	0.53333
1022.13916	0.53246
1020.21060	0.53189
1018.28203	0.53161
1016.35347	0.53158
1014.42490	0.53147
1012.49634	0.53103
1010.56777	0.53037
1008.63921	0.52985
1006.71064	0.52994
1004.78208	0.53095
1002.85352	0.53278
1000.92495	0.53530
998.99639	0.53860
997.06782	0.54263
995.13926	0.54708
993.21069	0.55141
991.28213	0.55479
989.35356	0.55661
987.42500	0.55708
985.49644	0.55683
983.56787	0.55643
981.63931	0.55633
979.71074	0.55699
977.78218	0.55837
975.85361	0.56018
973.92505	0.56244
971.99648	0.56516
970.06792	0.56824
968.13936	0.57166
966.21079	0.57549
964.28223	0.57977
962.35366	0.58439
960.42510	0.58936
958.49653	0.59466
956.56797	0.60021
954.63940	0.60607
952.71084	0.61225
950.78228	0.61874
948.85371	0.62534
946.92515	0.63157
944.99658	0.63751
943.06802	0.64364
941.13945	0.65007
939.21089	0.65653
937.28232	0.66236
935.35376	0.66750
933.42520	0.67288
931.49663	0.67900
929.56807	0.68538
927.63950	0.69122
925.71094	0.69661
923.78237	0.70242
921.85381	0.70934
919.92524	0.71697
917.99668	0.72414
916.06812	0.73101
914.13955	0.73864
912.21099	0.74668
910.28242	0.75458
908.35386	0.76316
906.42529	0.77296
904.49673	0.78295
902.56816	0.79222
900.63960	0.80122
898.71104	0.81052
896.78247	0.82061
894.85391	0.83175
892.92534	0.84293
890.99678	0.85339
889.06821	0.86354
887.13965	0.87376
885.21108	0.88474
883.28252	0.89695
881.35396	0.90910
879.42539	0.92023
877.49683	0.93141
875.56826	0.94299
873.63970	0.95343
871.71113	0.96353
869.78257	0.97525
867.85400	0.98781
865.92544	1.00057
863.99687	1.01381
862.06831	1.02695
860.13975	1.03930
858.21118	1.05075
856.28262	1.06134
854.35405	1.07241
852.42549	1.08596
850.49692	1.10045
848.56836	1.11329
846.63979	1.12488
844.71123	1.13593
842.78267	1.14687
840.85410	1.15787
838.92554	1.16706
836.99697	1.17671
835.06841	1.19229
833.13984	1.20989
831.21128	1.22229
829.28271	1.23293
827.35415	1.24781
825.42559	1.26523
823.49702	1.28261
821.56846	1.29837
819.63989	1.30894
817.71133	1.32095
815.78276	1.33891
813.85420	1.34773
811.92563	1.34893
809.99707	1.36184
808.06851	1.38961
806.13994	1.42552
804.21138	1.45304
802.28281	1.45669
800.35425	1.43713
798.42568	1.41825
796.49712	1.42925
794.56855	1.46630
792.63999	1.51387
790.71143	1.55328
788.78286	1.55951
786.85430	1.54107
784.92573	1.53617
782.99717	1.61298
781.06860	1.72398
779.14004	1.74582
777.21147	1.68371
775.28291	1.67038
773.35435	1.69737
771.42578	1.69667
769.49722	1.76128
767.56865	1.76244
765.64009	1.64844
763.71152	1.63334
761.78296	1.67364
759.85439	1.56195
757.92583	1.37853
755.99727	1.26773
754.06870	1.22816
752.14014	1.26629
750.21157	1.39268
748.28301	1.59432
746.35444	1.67658
744.42588	1.34166
742.49731	1.08920
740.56875	1.00162
738.64019	0.99529
736.71162	1.01544
734.78306	1.02509
732.85449	0.84929
730.92593	0.62289
728.99736	0.42937
727.06880	0.27635
725.14023	0.21408
723.21167	0.26314
721.28311	0.30415
719.35454	0.10023
717.42598	-0.12676
715.49741	-0.19555
713.56885	-0.31874
711.64028	-0.32675
709.71172	-0.06501
707.78315	0.22666
705.85459	0.12848
703.92603	-0.02854
701.99746	0.00736
700.06890	0.17214
698.14033	0.28491
696.21177	0.29313
694.28320	0.33015
692.35464	0.42800
690.42607	0.39794
688.49751	0.27195
686.56895	0.20659
684.64038	0.25829
682.71182	0.35242
680.78325	0.33280
678.85469	0.23838
676.92612	0.17550
674.99756	0.13327
673.06899	0.13625
671.14043	0.20742
669.21187	0.22547
667.28330	0.17050
665.35474	0.18266
663.42617	0.29388
661.49761	0.45652
659.56904	0.59672
657.64048	0.55651
655.71191	0.38848
653.78335	0.29835
651.85479	0.29080
649.92622	0.25651
647.99766	0.20869
646.06909	0.26384
644.14053	0.32174
642.21196	0.25072
640.28340	0.17813
638.35483	0.18700
636.42627	0.25371
634.49771	0.33278
632.56914	0.31536
630.64058	0.27507
628.71201	0.26101
626.78345	0.23375
624.85488	0.23974
622.92632	0.32110
620.99775	0.55814
619.06919	0.92471
617.14062	0.47469
615.21206	0.28339
613.28350	0.21968
611.35493	0.16464
609.42637	0.15437
607.49780	0.20810
605.56924	0.22635
603.64067	0.20252
601.71211	0.22606
599.78354	0.36165
597.85498	0.57436
595.92642	0.50239
593.99785	0.35914
592.06929	0.31592
590.14072	0.29887
588.21216	0.27364
586.28359	0.23620
584.35503	0.18574
582.42646	0.17294
580.49790	0.18626
578.56934	0.16711
576.64077	0.17209
574.71221	0.23675
572.78364	0.27089
570.85508	0.20521
568.92651	0.13761
566.99795	0.14405
565.06938	0.17665
563.14082	0.15223
561.21226	0.12496
559.28369	0.16655
557.35513	0.25830
555.42656	0.29283
553.49800	0.22987
551.56943	0.17541
549.64087	0.16431
547.71230	0.23189
545.78374	0.39167
543.85518	0.55600
541.92661	0.53351
539.99805	0.40107
538.06948	0.29983
536.14092	0.26166
534.21235	0.29383
532.28379	0.31087
530.35522	0.27402
528.42666	0.26438
526.49810	0.26489
524.56953	0.23638
522.64097	0.19804
520.71240	0.16719
518.78384	0.16558
516.85527	0.17632
514.92671	0.19867
512.99814	0.27692
511.06958	0.33097
509.14102	0.26177
507.21245	0.19853
505.28389	0.16864
503.35532	0.16098
501.42676	0.19038
499.49819	0.25230
