3997.91411	0.08818
3995.98555	0.08873
3994.05698	0.08935
3992.12842	0.08970
3990.19985	0.08985
3988.27129	0.08971
3986.34272	0.08935
3984.41416	0.08952
3982.48560	0.09026
3980.55703	0.09087
3978.62847	0.09107
3976.69990	0.09129
3974.77134	0.09172
3972.84277	0.09203
3970.91421	0.09208
3968.98564	0.09207
3967.05708	0.09199
3965.12852	0.09195
3963.19995	0.09236
3961.27139	0.09297
3959.34282	0.09315
3957.41426	0.09304
3955.48569	0.09290
3953.55713	0.09279
3951.62856	0.09326
3949.70000	0.09439
3947.77144	0.09481
3945.84287	0.09393
3943.91431	0.09364
3941.98574	0.09446
3940.05718	0.09435
3938.12861	0.09332
3936.20005	0.09294
3934.27148	0.09348
3932.34292	0.09466
3930.41436	0.09575
3928.48579	0.09557
3926.55723	0.09459
3924.62866	0.09425
3922.70010	0.09426
3920.77153	0.09389
3918.84297	0.09398
3916.91440	0.09457
3914.98584	0.09424
3913.05728	0.09288
3911.12871	0.09168
3909.20015	0.09115
3907.27158	0.09189
3905.34302	0.09476
3903.41445	0.09864
3901.48589	0.10045
3899.55732	0.09990
3897.62876	0.09777
3895.70020	0.09466
3893.77163	0.09315
3891.84307	0.09442
3889.91450	0.09566
3887.98594	0.09492
3886.05737	0.09524
3884.12881	0.09702
3882.20024	0.09745
3880.27168	0.09679
3878.34312	0.09551
3876.41455	0.09468
3874.48599	0.09616
3872.55742	0.09899
3870.62886	0.10129
3868.70029	0.10220
3866.77173	0.10102
3864.84316	0.10022
3862.91460	0.10054
3860.98604	0.09972
3859.05747	0.09871
3857.12891	0.09955
3855.20034	0.10249
3853.27178	0.10748
3851.34321	0.10926
3849.41465	0.10473
3847.48608	0.10043
3845.55752	0.09876
3843.62896	0.09976
3841.70039	0.10295
3839.77183	0.10734
3837.84326	0.11087
3835.91470	0.11085
3833.98613	0.10873
3832.05757	0.10719
3830.12900	0.10628
3828.20044	0.10599
3826.27187	0.10687
3824.34331	0.10831
3822.41475	0.11062
3820.48618	0.11470
3818.55762	0.11655
3816.62905	0.11578
3814.70049	0.11469
3812.77192	0.11243
3810.84336	0.11098
3808.91479	0.11208
3806.98623	0.11515
3805.05767	0.11770
3803.12910	0.11927
3801.20054	0.12244
3799.27197	0.12476
3797.34341	0.12404
3795.41484	0.12291
3793.48628	0.12151
3791.55771	0.12068
3789.62915	0.12141
3787.70059	0.12311
3785.77202	0.12559
3783.84346	0.12812
3781.91489	0.12976
3779.98633	0.13177
3778.05776	0.13397
3776.12920	0.13428
3774.20063	0.13441
3772.27207	0.13619
3770.34351	0.13931
3768.41494	0.14229
3766.48638	0.14402
3764.55781	0.14536
3762.62925	0.14658
3760.70068	0.14869
3758.77212	0.15271
3756.84355	0.15640
3754.91499	0.15866
3752.98643	0.16227
3751.05786	0.16924
3749.12930	0.17599
3747.20073	0.17784
3745.27217	0.17948
3743.34360	0.18381
3741.41504	0.18730
3739.48647	0.18993
3737.55791	0.19528
3735.62935	0.20493
3733.70078	0.21481
3731.77222	0.21887
3729.84365	0.22036
3727.91509	0.22327
3725.98652	0.22870
3724.05796	0.23517
3722.12939	0.24051
3720.20083	0.24438
3718.27227	0.24721
3716.34370	0.25047
3714.41514	0.25575
3712.48657	0.26603
3710.55801	0.28347
3708.62944	0.29987
3706.70088	0.30994
3704.77231	0.31938
3702.84375	0.33174
3700.91519	0.34794
3698.98662	0.36489
3697.05806	0.38055
3695.12949	0.39765
3693.20093	0.41698
3691.27236	0.43911
3689.34380	0.46734
3687.41523	0.49951
3685.48667	0.52563
3683.55811	0.54802
3681.62954	0.57377
3679.70098	0.60462
3677.77241	0.63818
3675.84385	0.67869
3673.91528	0.73083
3671.98672	0.77042
3670.05815	0.80606
3668.12959	0.85619
3666.20103	0.90053
3664.27246	0.93714
3662.34390	0.97782
3660.41533	1.02327
3658.48677	1.06885
3656.55820	1.11776
3654.62964	1.17199
3652.70107	1.21684
3650.77251	1.25666
3648.84395	1.31316
3646.91538	1.37987
3644.98682	1.42586
3643.05825	1.46127
3641.12969	1.49911
3639.20112	1.54187
3637.27256	1.58545
3635.34399	1.62824
3633.41543	1.67114
3631.48687	1.71152
3629.55830	1.75339
3627.62974	1.80870
3625.70117	1.85777
3623.77261	1.88837
3621.84404	1.91803
3619.91548	1.95417
3617.98691	1.99892
3616.05835	2.04090
3614.12979	2.07473
3612.20122	2.11034
3610.27266	2.14742
3608.34409	2.18636
3606.41553	2.22834
3604.48696	2.26710
3602.55840	2.30225
3600.62983	2.34049
3598.70127	2.38098
3596.77271	2.41927
3594.84414	2.45813
3592.91558	2.49865
3590.98701	2.53601
3589.05845	2.57116
3587.12988	2.61356
3585.20132	2.65841
3583.27275	2.69589
3581.34419	2.73088
3579.41562	2.76854
3577.48706	2.80987
3575.55850	2.85236
3573.62993	2.89439
3571.70137	2.93408
3569.77280	2.97271
3567.84424	3.01592
3565.91567	3.06864
3563.98711	3.11702
3562.05854	3.15453
3560.12998	3.19225
3558.20142	3.23444
3556.27285	3.28009
3554.34429	3.32547
3552.41572	3.37000
3550.48716	3.41414
3548.55859	3.45743
3546.63003	3.50101
3544.70146	3.54709
3542.77290	3.59474
3540.84434	3.64141
3538.91577	3.68679
3536.98721	3.73097
3535.05864	3.77539
3533.13008	3.82033
3531.20151	3.86566
3529.27295	3.91120
3527.34438	3.95919
3525.41582	4.00947
3523.48726	4.06063
3521.55869	4.11122
3519.63013	4.15521
3517.70156	4.19640
3515.77300	4.24150
3513.84443	4.28942
3511.91587	4.33814
3509.98730	4.38741
3508.05874	4.43677
3506.13018	4.48464
3504.20161	4.52923
3502.27305	4.57306
3500.34448	4.61938
3498.41592	4.66395
3496.48735	4.70463
3494.55879	4.74479
3492.63022	4.78933
3490.70166	4.84107
3488.77310	4.89514
3486.84453	4.94487
3484.91597	4.99049
3482.98740	5.03359
3481.05884	5.07169
3479.13027	5.10778
3477.20171	5.15319
3475.27314	5.20444
3473.34458	5.25202
3471.41602	5.29852
3469.48745	5.34448
3467.55889	5.39036
3465.63032	5.44008
3463.70176	5.49164
3461.77319	5.54348
3459.84463	5.60082
3457.91606	5.65438
3455.98750	5.69603
3454.05894	5.73657
3452.13037	5.78381
3450.20181	5.83649
3448.27324	5.88870
3446.34468	5.93733
3444.41611	5.98976
3442.48755	6.05800
3440.55898	6.11644
3438.63042	6.14718
3436.70186	6.17853
3434.77329	6.22635
3432.84473	6.28531
3430.91616	6.34428
3428.98760	6.40083
3427.05903	6.44613
3425.13047	6.48610
3423.20190	6.54753
3421.27334	6.61741
3419.34478	6.64502
3417.41621	6.64063
3415.48765	6.65722
3413.55908	6.69956
3411.63052	6.76045
3409.70195	6.83617
3407.77339	6.89130
3405.84482	6.89669
3403.91626	6.91277
3401.98770	6.97216
3400.05913	7.02712
3398.13057	7.04658
3396.20200	7.04539
3394.27344	7.06801
3392.34487	7.12690
3390.41631	7.19612
3388.48774	7.22088
3386.55918	7.21947
3384.63062	7.25501
3382.70205	7.30697
3380.77349	7.32890
3378.84492	7.33736
3376.91636	7.35631
3374.98779	7.38091
3373.05923	7.44045
3371.13066	7.53032
3369.20210	7.62178
3367.27354	7.67546
3365.34497	7.65878
3363.41641	7.62684
3361.48784	7.63424
3359.55928	7.67138
3357.63071	7.70623
3355.70215	7.71731
3353.77358	7.68870
3351.84502	7.67706
3349.91646	7.72861
3347.98789	7.80440
3346.05933	7.84533
3344.13076	7.86986
3342.20220	7.91106
3340.27363	7.94694
3338.34507	7.95604
3336.41650	7.90310
3334.48794	7.83876
3332.55937	7.82754
3330.63081	7.86459
3328.70225	7.88101
3326.77368	7.84934
3324.84512	7.82181
3322.91655	7.80926
3320.98799	7.82229
3319.05942	7.85216
3317.13086	7.90364
3315.20229	7.95004
3313.27373	7.89329
3311.34517	7.75373
3309.41660	7.67450
3307.48804	7.71716
3305.55947	7.84310
3303.63091	7.94216
3301.70234	7.91035
3299.77378	7.85261
3297.84521	7.88059
3295.91665	7.97840
3293.98809	8.02477
3292.05952	7.94286
3290.13096	7.82653
3288.20239	7.78260
3286.27383	7.87622
3284.34526	8.04739
3282.41670	8.13220
3280.48813	8.07875
3278.55957	7.98735
3276.63101	7.94475
3274.70244	8.00226
3272.77388	8.11429
3270.84531	8.13017
3268.91675	8.04114
3266.98818	7.97601
3265.05962	7.98197
3263.13105	7.99969
3261.20249	7.99134
3259.27393	7.97824
3257.34536	7.99545
3255.41680	8.00223
3253.48823	7.97519
3251.55967	8.00870
3249.63110	8.09168
3247.70254	8.06844
3245.77397	7.95028
3243.84541	7.89346
3241.91685	7.87185
3239.98828	7.81937
3238.05972	7.80777
3236.13115	7.84514
3234.20259	7.84383
3232.27402	7.81823
3230.34546	7.84660
3228.41689	7.89614
3226.48833	7.85363
3224.55977	7.78563
3222.63120	7.83533
3220.70264	7.85791
3218.77407	7.74694
3216.84551	7.67497
3214.91694	7.67087
3212.98838	7.68113
3211.05981	7.70912
3209.13125	7.71135
3207.20269	7.66186
3205.27412	7.59844
3203.34556	7.53287
3201.41699	7.50101
3199.48843	7.51505
3197.55986	7.52101
3195.63130	7.51761
3193.70273	7.51455
3191.77417	7.48183
3189.84561	7.42638
3187.91704	7.37052
3185.98848	7.32533
3184.05991	7.30764
3182.13135	7.28646
3180.20278	7.20631
3178.27422	7.10192
3176.34565	7.02101
3174.41709	6.95055
3172.48853	6.90337
3170.55996	6.87175
3168.63140	6.81238
3166.70283	6.75161
3164.77427	6.70252
3162.84570	6.63125
3160.91714	6.54810
3158.98857	6.48202
3157.06001	6.43268
3155.13145	6.38857
3153.20288	6.34617
3151.27432	6.30445
3149.34575	6.25692
3147.41719	6.18518
3145.48862	6.09325
3143.56006	6.01691
3141.63149	5.94683
3139.70293	5.85792
3137.77437	5.77462
3135.84580	5.70811
3133.91724	5.64212
3131.98867	5.57466
3130.06011	5.51491
3128.13154	5.45773
3126.20298	5.39305
3124.27441	5.32453
3122.34585	5.25263
3120.41729	5.17895
3118.48872	5.11057
3116.56016	5.04884
3114.63159	4.99176
3112.70303	4.93577
3110.77446	4.87360
3108.84590	4.80055
3106.91733	4.72308
3104.98877	4.65103
3103.06021	4.58608
3101.13164	4.52288
3099.20308	4.45949
3097.27451	4.39834
3095.34595	4.34085
3093.41738	4.28326
3091.48882	4.21912
3089.56025	4.15016
3087.63169	4.08462
3085.70312	4.02680
3083.77456	3.97157
3081.84600	3.91226
3079.91743	3.85052
3077.98887	3.79059
3076.06030	3.73210
3074.13174	3.67428
3072.20317	3.61776
3070.27461	3.56168
3068.34604	3.50577
3066.41748	3.45122
3064.48892	3.39815
3062.56035	3.34477
3060.63179	3.29151
3058.70322	3.23961
3056.77466	3.18698
3054.84609	3.13331
3052.91753	3.08112
3050.98896	3.03100
3049.06040	2.98234
3047.13184	2.93485
3045.20327	2.88754
3043.27471	2.83971
3041.34614	2.79141
3039.41758	2.74399
3037.48901	2.69900
3035.56045	2.65511
3033.63188	2.61053
3031.70332	2.56552
3029.77476	2.52115
3027.84619	2.47832
3025.91763	2.43675
3023.98906	2.39563
3022.06050	2.35467
3020.13193	2.31384
3018.20337	2.27335
3016.27480	2.23367
3014.34624	2.19528
3012.41768	2.15785
3010.48911	2.12070
3008.56055	2.08419
3006.63198	2.04854
3004.70342	2.01324
3002.77485	1.97842
3000.84629	1.94466
2998.91772	1.91155
2996.98916	1.87849
2995.06060	1.84629
2993.13203	1.81537
2991.20347	1.78496
2989.27490	1.75475
2987.34634	1.72523
2985.41777	1.69670
2983.48921	1.66866
2981.56064	1.64069
2979.63208	1.61319
2977.70352	1.58668
2975.77495	1.56095
2973.84639	1.53545
2971.91782	1.50988
2969.98926	1.48429
2968.06069	1.45913
2966.13213	1.43496
2964.20356	1.41152
2962.27500	1.38808
2960.34644	1.36447
2958.41787	1.34097
2956.48931	1.31758
2954.56074	1.29413
2952.63218	1.27109
2950.70361	1.24883
2948.77505	1.22648
2946.84648	1.20409
2944.91792	1.18280
2942.98936	1.16229
2941.06079	1.14191
2939.13223	1.12190
2937.20366	1.10212
2935.27510	1.08237
2933.34653	1.06321
2931.41797	1.04462
2929.48940	1.02586
2927.56084	1.00710
2925.63228	0.98883
2923.70371	0.97122
2921.77515	0.95459
2919.84658	0.93852
2917.91802	0.92205
2915.98945	0.90506
2914.06089	0.88788
2912.13232	0.87140
2910.20376	0.85613
2908.27520	0.84124
2906.34663	0.82641
2904.41807	0.81213
2902.48950	0.79847
2900.56094	0.78542
2898.63237	0.77269
2896.70381	0.75981
2894.77524	0.74695
2892.84668	0.73429
2890.91812	0.72203
2888.98955	0.71052
2887.06099	0.69953
2885.13242	0.68887
2883.20386	0.67856
2881.27529	0.66829
2879.34673	0.65797
2877.41816	0.64811
2875.48960	0.63876
2873.56104	0.62921
2871.63247	0.61904
2869.70391	0.60845
2867.77534	0.59760
2865.84678	0.58648
2863.91821	0.57535
2861.98965	0.56455
2860.06108	0.55419
2858.13252	0.54440
2856.20396	0.53523
2854.27539	0.52654
2852.34683	0.51810
2850.41826	0.50987
2848.48970	0.50188
2846.56113	0.49399
2844.63257	0.48632
2842.70400	0.47934
2840.77544	0.47302
2838.84687	0.46685
2836.91831	0.46060
2834.98975	0.45434
2833.06118	0.44831
2831.13262	0.44246
2829.20405	0.43643
2827.27549	0.43033
2825.34692	0.42431
2823.41836	0.41824
2821.48979	0.41229
2819.56123	0.40663
2817.63267	0.40117
2815.70410	0.39587
2813.77554	0.39073
2811.84697	0.38559
2809.91841	0.38033
2807.98984	0.37492
2806.06128	0.36955
2804.13271	0.36434
2802.20415	0.35928
2800.27559	0.35441
2798.34702	0.34977
2796.41846	0.34528
2794.48989	0.34069
2792.56133	0.33609
2790.63276	0.33174
2788.70420	0.32746
2786.77563	0.32304
2784.84707	0.31877
2782.91851	0.31480
2780.98994	0.31089
2779.06138	0.30700
2777.13281	0.30315
2775.20425	0.29934
2773.27568	0.29557
2771.34712	0.29188
2769.41855	0.28840
2767.48999	0.28504
2765.56143	0.28162
2763.63286	0.27824
2761.70430	0.27502
2759.77573	0.27184
2757.84717	0.26868
2755.91860	0.26575
2753.99004	0.26302
2752.06147	0.26019
2750.13291	0.25710
2748.20435	0.25394
2746.27578	0.25102
2744.34722	0.24834
2742.41865	0.24571
2740.49009	0.24314
2738.56152	0.24070
2736.63296	0.23831
2734.70439	0.23588
2732.77583	0.23358
2730.84727	0.23144
2728.91870	0.22928
2726.99014	0.22706
2725.06157	0.22482
2723.13301	0.22262
2721.20444	0.22035
2719.27588	0.21813
2717.34731	0.21622
2715.41875	0.21460
2713.49019	0.21292
2711.56162	0.21109
2709.63306	0.20931
2707.70449	0.20770
2705.77593	0.20618
2703.84736	0.20458
2701.91880	0.20289
2699.99023	0.20132
2698.06167	0.19987
2696.13311	0.19837
2694.20454	0.19688
2692.27598	0.19555
2690.34741	0.19432
2688.41885	0.19308
2686.49028	0.19184
2684.56172	0.19066
2682.63315	0.18963
2680.70459	0.18867
2678.77603	0.18764
2676.84746	0.18652
2674.91890	0.18535
2672.99033	0.18417
2671.06177	0.18313
2669.13320	0.18220
2667.20464	0.18117
2665.27607	0.18017
2663.34751	0.17930
2661.41895	0.17851
2659.49038	0.17787
2657.56182	0.17723
2655.63325	0.17643
2653.70469	0.17571
2651.77612	0.17512
2649.84756	0.17442
2647.91899	0.17362
2645.99043	0.17297
2644.06187	0.17249
2642.13330	0.17201
2640.20474	0.17151
2638.27617	0.17112
2636.34761	0.17073
2634.41904	0.17023
2632.49048	0.16978
2630.56191	0.16941
2628.63335	0.16909
2626.70479	0.16886
2624.77622	0.16857
2622.84766	0.16826
2620.91909	0.16811
2618.99053	0.16789
2617.06196	0.16743
2615.13340	0.16708
2613.20483	0.16696
2611.27627	0.16699
2609.34771	0.16703
2607.41914	0.16691
2605.49058	0.16673
2603.56201	0.16665
2601.63345	0.16668
2599.70488	0.16676
2597.77632	0.16682
2595.84775	0.16682
2593.91919	0.16668
2591.99062	0.16651
2590.06206	0.16662
2588.13350	0.16697
2586.20493	0.16724
2584.27637	0.16737
2582.34780	0.16756
2580.41924	0.16788
2578.49067	0.16814
2576.56211	0.16830
2574.63354	0.16849
2572.70498	0.16880
2570.77642	0.16919
2568.84785	0.16956
2566.91929	0.16987
2564.99072	0.17026
2563.06216	0.17076
2561.13359	0.17126
2559.20503	0.17175
2557.27646	0.17215
2555.34790	0.17242
2553.41934	0.17279
2551.49077	0.17333
2549.56221	0.17384
2547.63364	0.17437
2545.70508	0.17507
2543.77651	0.17582
2541.84795	0.17646
2539.91938	0.17694
2537.99082	0.17734
2536.06226	0.17797
2534.13369	0.17887
2532.20513	0.17968
2530.27656	0.18024
2528.34800	0.18079
2526.41943	0.18156
2524.49087	0.18238
2522.56230	0.18306
2520.63374	0.18375
2518.70518	0.18460
2516.77661	0.18542
2514.84805	0.18608
2512.91948	0.18677
2510.99092	0.18752
2509.06235	0.18823
2507.13379	0.18892
2505.20522	0.18970
2503.27666	0.19064
2501.34810	0.19158
2499.41953	0.19233
2497.49097	0.19300
2495.56240	0.19373
2493.63384	0.19452
2491.70527	0.19531
2489.77671	0.19610
2487.84814	0.19693
2485.91958	0.19783
2483.99102	0.19878
2482.06245	0.19972
2480.13389	0.20055
2478.20532	0.20129
2476.27676	0.20206
2474.34819	0.20294
2472.41963	0.20380
2470.49106	0.20463
2468.56250	0.20552
2466.63394	0.20646
2464.70537	0.20744
2462.77681	0.20853
2460.84824	0.20965
2458.91968	0.21060
2456.99111	0.21133
2455.06255	0.21209
2453.13398	0.21305
2451.20542	0.21403
2449.27686	0.21494
2447.34829	0.21590
2445.41973	0.21694
2443.49116	0.21795
2441.56260	0.21882
2439.63403	0.21970
2437.70547	0.22066
2435.77690	0.22169
2433.84834	0.22273
2431.91978	0.22378
2429.99121	0.22478
2428.06265	0.22575
2426.13408	0.22679
2424.20552	0.22784
2422.27695	0.22883
2420.34839	0.22990
2418.41982	0.23105
2416.49126	0.23218
2414.56270	0.23323
2412.63413	0.23422
2410.70557	0.23538
2408.77700	0.23671
2406.84844	0.23789
2404.91987	0.23893
2402.99131	0.24009
2401.06274	0.24138
2399.13418	0.24262
2397.20562	0.24373
2395.27705	0.24486
2393.34849	0.24610
2391.41992	0.24747
2389.49136	0.24913
2387.56279	0.25157
2385.63423	0.25556
2383.70566	0.26164
2381.77710	0.26967
2379.84854	0.27939
2377.91997	0.29102
2375.99141	0.30477
2374.06284	0.32036
2372.13428	0.33750
2370.20571	0.35593
2368.27715	0.37392
2366.34858	0.38984
2364.42002	0.40456
2362.49146	0.41734
2360.56289	0.42447
2358.63433	0.42404
2356.70576	0.41740
2354.77720	0.40594
2352.84863	0.38938
2350.92007	0.37089
2348.99150	0.35942
2347.06294	0.35954
2345.13437	0.37154
2343.20581	0.38917
2341.27725	0.39956
2339.34868	0.40065
2337.42012	0.39870
2335.49155	0.39710
2333.56299	0.39574
2331.63442	0.39486
2329.70586	0.39427
2327.77729	0.39266
2325.84873	0.38898
2323.92017	0.38357
2321.99160	0.37738
2320.06304	0.37096
2318.13447	0.36481
2316.20591	0.35975
2314.27734	0.35635
2312.34878	0.35430
2310.42021	0.35259
2308.49165	0.35012
2306.56309	0.34673
2304.63452	0.34350
2302.70596	0.34164
2300.77739	0.34102
2298.84883	0.34065
2296.92026	0.34030
2294.99170	0.34005
2293.06313	0.33974
2291.13457	0.33927
2289.20601	0.33880
2287.27744	0.33858
2285.34888	0.33863
2283.42031	0.33914
2281.49175	0.34053
2279.56318	0.34284
2277.63462	0.34553
2275.70605	0.34806
2273.77749	0.35025
2271.84893	0.35227
2269.92036	0.35423
2267.99180	0.35610
2266.06323	0.35794
2264.13467	0.35982
2262.20610	0.36163
2260.27754	0.36331
2258.34897	0.36495
2256.42041	0.36666
2254.49185	0.36840
2252.56328	0.37019
2250.63472	0.37212
2248.70615	0.37406
2246.77759	0.37592
2244.84902	0.37780
2242.92046	0.37978
2240.99189	0.38180
2239.06333	0.38375
2237.13477	0.38569
2235.20620	0.38777
2233.27764	0.38989
2231.34907	0.39201
2229.42051	0.39425
2227.49194	0.39646
2225.56338	0.39847
2223.63481	0.40047
2221.70625	0.40270
2219.77769	0.40499
2217.84912	0.40713
2215.92056	0.40921
2213.99199	0.41139
2212.06343	0.41357
2210.13486	0.41558
2208.20630	0.41749
2206.27773	0.41941
2204.34917	0.42139
2202.42061	0.42340
2200.49204	0.42539
2198.56348	0.42743
2196.63491	0.42949
2194.70635	0.43146
2192.77778	0.43334
2190.84922	0.43524
2188.92065	0.43710
2186.99209	0.43879
2185.06353	0.44042
2183.13496	0.44213
2181.20640	0.44387
2179.27783	0.44554
2177.34927	0.44711
2175.42070	0.44853
2173.49214	0.44991
2171.56357	0.45129
2169.63501	0.45263
2167.70645	0.45392
2165.77788	0.45518
2163.84932	0.45641
2161.92075	0.45759
2159.99219	0.45872
2158.06362	0.45964
2156.13506	0.46036
2154.20649	0.46110
2152.27793	0.46185
2150.34937	0.46252
2148.42080	0.46317
2146.49224	0.46381
2144.56367	0.46422
2142.63511	0.46447
2140.70654	0.46484
2138.77798	0.46530
2136.84941	0.46551
2134.92085	0.46539
2132.99229	0.46516
2131.06372	0.46497
2129.13516	0.46485
2127.20659	0.46472
2125.27803	0.46445
2123.34946	0.46388
2121.42090	0.46322
2119.49233	0.46262
2117.56377	0.46200
2115.63521	0.46131
2113.70664	0.46060
2111.77808	0.45977
2109.84951	0.45878
2107.92095	0.45764
2105.99238	0.45638
2104.06382	0.45511
2102.13525	0.45383
2100.20669	0.45249
2098.27812	0.45115
2096.34956	0.44986
2094.42100	0.44850
2092.49243	0.44702
2090.56387	0.44536
2088.63530	0.44345
2086.70674	0.44151
2084.77817	0.43957
2082.84961	0.43753
2080.92104	0.43552
2078.99248	0.43353
2077.06392	0.43145
2075.13535	0.42930
2073.20679	0.42712
2071.27822	0.42494
2069.34966	0.42275
2067.42109	0.42049
2065.49253	0.41819
2063.56396	0.41582
2061.63540	0.41338
2059.70684	0.41092
2057.77827	0.40843
2055.84971	0.40587
2053.92114	0.40327
2051.99258	0.40069
2050.06401	0.39811
2048.13545	0.39554
2046.20688	0.39296
2044.27832	0.39042
2042.34976	0.38790
2040.42119	0.38527
2038.49263	0.38244
2036.56406	0.37960
2034.63550	0.37678
2032.70693	0.37395
2030.77837	0.37113
2028.84980	0.36836
2026.92124	0.36562
2024.99268	0.36293
2023.06411	0.36019
2021.13555	0.35741
2019.20698	0.35483
2017.27842	0.35236
2015.34985	0.34957
2013.42129	0.34658
2011.49272	0.34370
2009.56416	0.34097
2007.63560	0.33832
2005.70703	0.33557
2003.77847	0.33272
2001.84990	0.33004
1999.92134	0.32762
1997.99277	0.32517
1996.06421	0.32262
1994.13564	0.32030
1992.20708	0.31820
1990.27852	0.31579
1988.34995	0.31309
1986.42139	0.31038
1984.49282	0.30778
1982.56426	0.30538
1980.63569	0.30310
1978.70713	0.30086
1976.77856	0.29862
1974.85000	0.29640
1972.92144	0.29421
1970.99287	0.29218
1969.06431	0.29049
1967.13574	0.28892
1965.20718	0.28684
1963.27861	0.28445
1961.35005	0.28233
1959.42148	0.28046
1957.49292	0.27863
1955.56436	0.27684
1953.63579	0.27510
1951.70723	0.27340
1949.77866	0.27177
1947.85010	0.27022
1945.92153	0.26885
1943.99297	0.26772
1942.06440	0.26651
1940.13584	0.26472
1938.20728	0.26282
1936.27871	0.26132
1934.35015	0.26009
1932.42158	0.25897
1930.49302	0.25782
1928.56445	0.25661
1926.63589	0.25554
1924.70732	0.25497
1922.77876	0.25453
1920.85020	0.25359
1918.92163	0.25253
1916.99307	0.25155
1915.06450	0.25032
1913.13594	0.24924
1911.20737	0.24871
1909.27881	0.24832
1907.35024	0.24756
1905.42168	0.24655
1903.49312	0.24575
1901.56455	0.24515
1899.63599	0.24463
1897.70742	0.24429
1895.77886	0.24410
1893.85029	0.24384
1891.92173	0.24362
1889.99316	0.24367
1888.06460	0.24347
1886.13604	0.24289
1884.20747	0.24240
1882.27891	0.24201
1880.35034	0.24169
1878.42178	0.24156
1876.49321	0.24158
1874.56465	0.24159
1872.63608	0.24179
1870.70752	0.24264
1868.77896	0.24404
1866.85039	0.24442
1864.92183	0.24356
1862.99326	0.24294
1861.06470	0.24294
1859.13613	0.24323
1857.20757	0.24348
1855.27900	0.24385
1853.35044	0.24434
1851.42187	0.24490
1849.49331	0.24568
1847.56475	0.24683
1845.63618	0.24833
1843.70762	0.24960
1841.77905	0.24976
1839.85049	0.24952
1837.92192	0.25003
1835.99336	0.25090
1834.06479	0.25180
1832.13623	0.25310
1830.20767	0.25518
1828.27910	0.25686
1826.35054	0.25760
1824.42197	0.25853
1822.49341	0.25935
1820.56484	0.26012
1818.63628	0.26131
1816.70771	0.26288
1814.77915	0.26451
1812.85059	0.26648
1810.92202	0.26886
1808.99346	0.27089
1807.06489	0.27244
1805.13633	0.27412
1803.20776	0.27649
1801.27920	0.27940
1799.35063	0.28237
1797.42207	0.28480
1795.49351	0.28723
1793.56494	0.29051
1791.63638	0.29451
1789.70781	0.29728
1787.77925	0.29886
1785.85068	0.30151
1783.92212	0.30526
1781.99355	0.30938
1780.06499	0.31369
1778.13643	0.31790
1776.20786	0.32189
1774.27930	0.32667
1772.35073	0.33326
1770.42217	0.33947
1768.49360	0.34380
1766.56504	0.34803
1764.63647	0.35290
1762.70791	0.35893
1760.77935	0.36655
1758.85078	0.37332
1756.92222	0.38007
1754.99365	0.38753
1753.06509	0.39465
1751.13652	0.40375
1749.20796	0.41507
1747.27939	0.42528
1745.35083	0.43383
1743.42227	0.44302
1741.49370	0.45327
1739.56514	0.46527
1737.63657	0.47727
1735.70801	0.48834
1733.77944	0.50552
1731.85088	0.52468
1729.92231	0.53848
1727.99375	0.55243
1726.06519	0.56802
1724.13662	0.58598
1722.20806	0.60586
1720.27949	0.62449
1718.35093	0.64680
1716.42236	0.67911
1714.49380	0.70818
1712.56523	0.73100
1710.63667	0.75370
1708.70811	0.77866
1706.77954	0.80748
1704.85098	0.84219
1702.92241	0.87305
1700.99385	0.90353
1699.06528	0.94935
1697.13672	0.99121
1695.20815	1.03272
1693.27959	1.07278
1691.35103	1.10579
1689.42246	1.14493
1687.49390	1.18662
1685.56533	1.22710
1683.63677	1.28884
1681.70820	1.35145
1679.77964	1.39059
1677.85107	1.42844
1675.92251	1.47265
1673.99395	1.52820
1672.06538	1.57828
1670.13682	1.62751
1668.20825	1.69053
1666.27969	1.74040
1664.35112	1.78350
1662.42256	1.83984
1660.49399	1.90423
1658.56543	1.95308
1656.63687	1.99266
1654.70830	2.03083
1652.77974	2.08823
1650.85117	2.13895
1648.92261	2.15621
1646.99404	2.17972
1645.06548	2.20493
1643.13691	2.22238
1641.20835	2.23349
1639.27979	2.24447
1637.35122	2.24955
1635.42266	2.24351
1633.49409	2.23152
1631.56553	2.21784
1629.63696	2.20188
1627.70840	2.17477
1625.77983	2.14360
1623.85127	2.10358
1621.92271	2.05337
1619.99414	2.01065
1618.06558	1.97176
1616.13701	1.91213
1614.20845	1.84628
1612.27988	1.79660
1610.35132	1.74729
1608.42275	1.69443
1606.49419	1.64173
1604.56562	1.59260
1602.63706	1.54540
1600.70850	1.49991
1598.77993	1.45802
1596.85137	1.41870
1594.92280	1.38073
1592.99424	1.34378
1591.06567	1.30977
1589.13711	1.27849
1587.20854	1.25004
1585.27998	1.22354
1583.35142	1.19830
1581.42285	1.17554
1579.49429	1.15692
1577.56572	1.14108
1575.63716	1.12143
1573.70859	1.10305
1571.78003	1.09150
1569.85146	1.08070
1567.92290	1.06833
1565.99434	1.05872
1564.06577	1.05190
1562.13721	1.04736
1560.20864	1.04612
1558.28008	1.04664
1556.35151	1.04480
1554.42295	1.04245
1552.49438	1.04065
1550.56582	1.03804
1548.63726	1.03359
1546.70869	1.02799
1544.78013	1.02102
1542.85156	1.01160
1540.92300	0.99666
1538.99443	0.97122
1537.06587	0.95159
1535.13730	0.93860
1533.20874	0.92162
1531.28018	0.90315
1529.35161	0.88987
1527.42305	0.87791
1525.49448	0.86577
1523.56592	0.85568
1521.63735	0.84602
1519.70879	0.83542
1517.78022	0.82647
1515.85166	0.81613
1513.92310	0.80477
1511.99453	0.79530
1510.06597	0.78790
1508.13740	0.78157
1506.20884	0.76891
1504.28027	0.75518
1502.35171	0.74743
1500.42314	0.74156
1498.49458	0.73579
1496.56602	0.72868
1494.63745	0.72124
1492.70889	0.71601
1490.78032	0.71235
1488.85176	0.70767
1486.92319	0.70147
1484.99463	0.69593
1483.06606	0.69194
1481.13750	0.68906
1479.20894	0.68697
1477.28037	0.68597
1475.35181	0.68598
1473.42324	0.68611
1471.49468	0.68438
1469.56611	0.68124
1467.63755	0.67866
1465.70898	0.67689
1463.78042	0.67526
1461.85186	0.67400
1459.92329	0.67406
1457.99473	0.67524
1456.06616	0.67464
1454.13760	0.67149
1452.20903	0.66854
1450.28047	0.66590
1448.35190	0.66357
1446.42334	0.66120
1444.49478	0.65863
1442.56621	0.65622
1440.63765	0.65409
1438.70908	0.65228
1436.78052	0.65016
1434.85195	0.64697
1432.92339	0.64399
1430.99482	0.64220
1429.06626	0.64117
1427.13770	0.64037
1425.20913	0.64031
1423.28057	0.64095
1421.35200	0.64152
1419.42344	0.64215
1417.49487	0.64198
1415.56631	0.64018
1413.63774	0.63858
1411.70918	0.63811
1409.78062	0.63836
1407.85205	0.63891
1405.92349	0.63994
1403.99492	0.64097
1402.06636	0.64120
1400.13779	0.64091
1398.20923	0.63988
1396.28066	0.63770
1394.35210	0.63433
1392.42354	0.63016
1390.49497	0.62638
1388.56641	0.62317
1386.63784	0.61946
1384.70928	0.61500
1382.78071	0.61064
1380.85215	0.60672
1378.92358	0.60349
1376.99502	0.60116
1375.06646	0.59959
1373.13789	0.59830
1371.20933	0.59710
1369.28076	0.59600
1367.35220	0.59467
1365.42363	0.59339
1363.49507	0.59256
1361.56650	0.59143
1359.63794	0.58953
1357.70937	0.58770
1355.78081	0.58635
1353.85225	0.58539
1351.92368	0.58467
1349.99512	0.58401
1348.06655	0.58321
1346.13799	0.58231
1344.20942	0.58152
1342.28086	0.58111
1340.35229	0.58108
1338.42373	0.58067
1336.49517	0.57952
1334.56660	0.57838
1332.63804	0.57780
1330.70947	0.57770
1328.78091	0.57785
1326.85234	0.57813
1324.92378	0.57859
1322.99521	0.57920
1321.06665	0.57976
1319.13809	0.58009
1317.20952	0.58012
1315.28096	0.57986
1313.35239	0.57939
1311.42383	0.57872
1309.49526	0.57792
1307.56670	0.57716
1305.63813	0.57651
1303.70957	0.57587
1301.78101	0.57524
1299.85244	0.57463
1297.92388	0.57389
1295.99531	0.57288
1294.06675	0.57168
1292.13818	0.57038
1290.20962	0.56915
1288.28105	0.56813
1286.35249	0.56726
1284.42393	0.56625
1282.49536	0.56499
1280.56680	0.56375
1278.63823	0.56264
1276.70967	0.56152
1274.78110	0.56044
1272.85254	0.55965
1270.92397	0.55910
1268.99541	0.55841
1267.06685	0.55750
1265.13828	0.55663
1263.20972	0.55585
1261.28115	0.55510
1259.35259	0.55441
1257.42402	0.55384
1255.49546	0.55345
1253.56689	0.55330
1251.63833	0.55338
1249.70977	0.55355
1247.78120	0.55355
1245.85264	0.55324
1243.92407	0.55262
1241.99551	0.55182
1240.06694	0.55081
1238.13838	0.54954
1236.20981	0.54795
1234.28125	0.54599
1232.35269	0.54389
1230.42412	0.54207
1228.49556	0.54054
1226.56699	0.53900
1224.63843	0.53737
1222.70986	0.53576
1220.78130	0.53442
1218.85273	0.53332
1216.92417	0.53224
1214.99561	0.53118
1213.06704	0.53029
1211.13848	0.52962
1209.20991	0.52899
1207.28135	0.52817
1205.35278	0.52712
1203.42422	0.52607
1201.49565	0.52522
1199.56709	0.52447
1197.63853	0.52371
1195.70996	0.52302
1193.78140	0.52241
1191.85283	0.52194
1189.92427	0.52172
1187.99570	0.52154
1186.06714	0.52117
1184.13857	0.52085
1182.21001	0.52090
1180.28145	0.52149
1178.35288	0.52242
1176.42432	0.52352
1174.49575	0.52459
1172.56719	0.52526
1170.63862	0.52545
1168.71006	0.52537
1166.78149	0.52521
1164.85293	0.52504
1162.92437	0.52482
1160.99580	0.52452
1159.06724	0.52410
1157.13867	0.52339
1155.21011	0.52245
1153.28154	0.52136
1151.35298	0.51986
1149.42441	0.51787
1147.49585	0.51562
1145.56729	0.51326
1143.63872	0.51094
1141.71016	0.50879
1139.78159	0.50670
1137.85303	0.50473
1135.92446	0.50309
1133.99590	0.50197
1132.06733	0.50142
1130.13877	0.50109
1128.21021	0.50046
1126.28164	0.49963
1124.35308	0.49874
1122.42451	0.49780
1120.49595	0.49717
1118.56738	0.49692
1116.63882	0.49664
1114.71025	0.49630
1112.78169	0.49645
1110.85312	0.49711
1108.92456	0.49781
1106.99600	0.49855
1105.06743	0.49974
1103.13887	0.50133
1101.21030	0.50301
1099.28174	0.50484
1097.35317	0.50695
1095.42461	0.50950
1093.49604	0.51278
1091.56748	0.51682
1089.63892	0.52168
1087.71035	0.52744
1085.78179	0.53374
1083.85322	0.54016
1081.92466	0.54633
1079.99609	0.55151
1078.06753	0.55495
1076.13896	0.55594
1074.21040	0.55388
1072.28184	0.54909
1070.35327	0.54290
1068.42471	0.53630
1066.49614	0.52960
1064.56758	0.52327
1062.63901	0.51768
1060.71045	0.51278
1058.78188	0.50853
1056.85332	0.50476
1054.92476	0.50136
1052.99619	0.49848
1051.06763	0.49605
1049.13906	0.49382
1047.21050	0.49188
1045.28193	0.49036
1043.35337	0.48906
1041.42480	0.48798
1039.49624	0.48731
1037.56768	0.48670
1035.63911	0.48601
1033.71055	0.48565
1031.78198	0.48560
1029.85342	0.48543
1027.92485	0.48500
1025.99629	0.48469
1024.06772	0.48473
1022.13916	0.48498
1020.21060	0.48521
1018.28203	0.48543
1016.35347	0.48584
1014.42490	0.48646
1012.49634	0.48737
1010.56777	0.48857
1008.63921	0.48966
1006.71064	0.49076
1004.78208	0.49244
1002.85352	0.49471
1000.92495	0.49723
998.99639	0.50007
997.06782	0.50354
995.13926	0.50760
993.21069	0.51167
991.28213	0.51503
989.35356	0.51745
987.42500	0.51890
985.49644	0.51968
983.56787	0.52039
981.63931	0.52132
979.71074	0.52241
977.78218	0.52391
975.85361	0.52603
973.92505	0.52875
971.99648	0.53201
970.06792	0.53535
968.13936	0.53875
966.21079	0.54264
964.28223	0.54708
962.35366	0.55184
960.42510	0.55679
958.49653	0.56202
956.56797	0.56737
954.63940	0.57278
952.71084	0.57873
950.78228	0.58533
948.85371	0.59203
946.92515	0.59822
944.99658	0.60402
943.06802	0.61003
941.13945	0.61640
939.21089	0.62247
937.28232	0.62780
935.35376	0.63290
933.42520	0.63834
931.49663	0.64424
929.56807	0.65027
927.63950	0.65590
925.71094	0.66142
923.78237	0.66735
921.85381	0.67361
919.92524	0.68044
917.99668	0.68752
916.06812	0.69439
914.13955	0.70206
912.21099	0.71093
910.28242	0.71976
908.35386	0.72771
906.42529	0.73547
904.49673	0.74390
902.56816	0.75243
900.63960	0.76070
898.71104	0.76957
896.78247	0.77964
894.85391	0.79024
892.92534	0.80005
890.99678	0.80866
889.06821	0.81737
887.13965	0.82769
885.21108	0.83944
883.28252	0.85166
881.35396	0.86429
879.42539	0.87743
877.49683	0.88982
875.56826	0.90057
873.63970	0.91063
871.71113	0.92121
869.78257	0.93197
867.85400	0.94180
865.92544	0.95187
863.99687	0.96317
862.06831	0.97415
860.13975	0.98474
858.21118	0.99647
856.28262	1.00893
854.35405	1.02065
852.42549	1.03144
850.49692	1.04290
848.56836	1.05498
846.63979	1.06638
844.71123	1.07838
842.78267	1.09133
840.85410	1.10382
838.92554	1.11406
836.99697	1.12202
835.06841	1.13213
833.13984	1.14525
831.21128	1.15671
829.28271	1.16597
827.35415	1.17589
825.42559	1.18665
823.49702	1.19884
821.56846	1.21318
819.63989	1.23060
817.71133	1.24948
815.78276	1.26081
813.85420	1.26671
811.92563	1.27806
809.99707	1.29133
808.06851	1.30118
806.13994	1.31534
804.21138	1.33271
802.28281	1.34163
800.35425	1.35188
798.42568	1.37294
796.49712	1.38969
794.56855	1.39340
792.63999	1.38314
790.71143	1.36375
788.78286	1.34556
786.85430	1.35202
784.92573	1.40300
782.99717	1.42129
781.06860	1.37096
779.14004	1.36940
777.21147	1.44969
775.28291	1.53377
773.35435	1.55597
771.42578	1.53195
769.49722	1.52055
767.56865	1.54603
765.64009	1.57438
763.71152	1.49923
761.78296	1.44533
759.85439	1.40006
757.92583	1.30067
755.99727	1.25999
754.06870	1.23028
752.14014	1.22194
750.21157	1.22102
748.28301	1.17821
746.35444	1.17086
744.42588	1.19726
742.49731	1.11902
740.56875	1.00603
738.64019	0.92002
736.71162	0.85088
734.78306	0.82307
732.85449	0.80533
730.92593	0.72063
728.99736	0.62389
727.06880	0.58132
725.14023	0.58250
723.21167	0.60109
721.28311	0.56108
719.35454	0.42863
717.42598	0.33607
715.49741	0.32725
713.56885	0.27795
711.64028	0.11661
709.71172	-0.04824
707.78315	-0.06598
705.85459	0.02115
703.92603	0.09407
701.99746	0.05000
700.06890	-0.02873
698.14033	-0.08003
696.21177	-0.06874
694.28320	-0.01435
692.35464	0.10555
690.42607	0.37931
688.49751	0.71793
686.56895	0.38725
684.64038	0.24765
682.71182	0.25204
680.78325	0.17867
678.85469	0.08301
676.92612	0.03073
674.99756	0.06883
673.06899	0.23141
671.14043	0.28863
669.21187	0.20210
667.28330	0.18148
665.35474	0.13853
663.42617	0.03076
661.49761	0.00583
659.56904	0.05834
657.64048	0.14025
655.71191	0.20911
653.78335	0.24507
651.85479	0.22220
649.92622	0.10598
647.99766	0.05917
646.06909	0.18481
644.14053	0.28671
642.21196	0.21394
640.28340	0.17077
638.35483	0.26812
636.42627	0.39661
634.49771	0.36836
632.56914	0.23193
630.64058	0.04821
628.71201	-0.05384
626.78345	-0.00546
624.85488	0.01208
622.92632	-0.03521
620.99775	-0.01439
619.06919	0.11314
617.14062	0.28677
615.21206	0.39628
613.28350	0.38241
611.35493	0.27927
609.42637	0.12610
607.49780	-0.00144
605.56924	-0.11818
603.64067	-0.20898
601.71211	-0.16652
599.78354	-0.08457
597.85498	-0.04782
595.92642	0.01022
593.99785	0.09726
592.06929	0.14128
590.14072	0.10899
588.21216	0.11337
586.28359	0.26375
584.35503	0.50525
582.42646	0.63701
580.49790	0.40673
578.56934	0.22901
576.64077	0.15310
574.71221	0.13461
572.78364	0.16192
570.85508	0.21895
568.92651	0.21450
566.99795	0.13806
565.06938	0.11067
563.14082	0.12316
561.21226	0.12525
559.28369	0.10599
557.35513	0.06431
555.42656	0.03123
553.49800	0.02543
551.56943	0.02300
549.64087	0.03311
547.71230	0.09084
545.78374	0.15685
543.85518	0.15763
541.92661	0.11956
539.99805	0.12079
538.06948	0.15626
536.14092	0.16240
534.21235	0.12936
532.28379	0.11943
530.35522	0.12820
528.42666	0.13013
526.49810	0.14828
524.56953	0.16889
522.64097	0.15304
520.71240	0.12061
518.78384	0.12567
516.85527	0.19411
514.92671	0.31007
512.99814	0.33959
511.06958	0.28601
509.14102	0.24860
507.21245	0.21713
505.28389	0.21066
503.35532	0.23586
501.42676	0.26636
499.49819	0.24066
