3997.91411	0.05264
3995.98555	0.05344
3994.05698	0.05428
3992.12842	0.05466
3990.19985	0.05500
3988.27129	0.05521
3986.34272	0.05502
3984.41416	0.05499
3982.48560	0.05511
3980.55703	0.05502
3978.62847	0.05520
3976.69990	0.05611
3974.77134	0.05737
3972.84277	0.05813
3970.91421	0.05807
3968.98564	0.05772
3967.05708	0.05754
3965.12852	0.05771
3963.19995	0.05831
3961.27139	0.05902
3959.34282	0.05941
3957.41426	0.05953
3955.48569	0.05954
3953.55713	0.05970
3951.62856	0.06087
3949.70000	0.06314
3947.77144	0.06463
3945.84287	0.06416
3943.91431	0.06383
3941.98574	0.06403
3940.05718	0.06239
3938.12861	0.05998
3936.20005	0.05949
3934.27148	0.06153
3932.34292	0.06486
3930.41436	0.06649
3928.48579	0.06513
3926.55723	0.06400
3924.62866	0.06523
3922.70010	0.06597
3920.77153	0.06484
3918.84297	0.06480
3916.91440	0.06569
3914.98584	0.06414
3913.05728	0.06065
3911.12871	0.05840
3909.20015	0.05837
3907.27158	0.06093
3905.34302	0.06730
3903.41445	0.07561
3901.48589	0.08001
3899.55732	0.07856
3897.62876	0.07286
3895.70020	0.06673
3893.77163	0.06531
3891.84307	0.06865
3889.91450	0.07030
3887.98594	0.06853
3886.05737	0.06949
3884.12881	0.07253
3882.20024	0.07359
3880.27168	0.07359
3878.34312	0.07074
3876.41455	0.06717
3874.48599	0.06874
3872.55742	0.07436
3870.62886	0.07994
3868.70029	0.08212
3866.77173	0.07998
3864.84316	0.07987
3862.91460	0.08147
3860.98604	0.07826
3859.05747	0.07391
3857.12891	0.07467
3855.20034	0.08147
3853.27178	0.09246
3851.34321	0.09455
3849.41465	0.08399
3847.48608	0.07526
3845.55752	0.07295
3843.62896	0.07663
3841.70039	0.08339
3839.77183	0.09087
3837.84326	0.09669
3835.91470	0.09561
3833.98613	0.08999
3832.05757	0.08561
3830.12900	0.08275
3828.20044	0.08157
3826.27187	0.08268
3824.34331	0.08511
3822.41475	0.09070
3820.48618	0.09950
3818.55762	0.10136
3816.62905	0.09762
3814.70049	0.09375
3812.77192	0.08805
3810.84336	0.08425
3808.91479	0.08572
3806.98623	0.09167
3805.05767	0.09723
3803.12910	0.10151
3801.20054	0.10769
3799.27197	0.10930
3797.34341	0.10529
3795.41484	0.10150
3793.48628	0.09722
3791.55771	0.09394
3789.62915	0.09357
3787.70059	0.09548
3785.77202	0.09927
3783.84346	0.10312
3781.91489	0.10499
3779.98633	0.10715
3778.05776	0.10924
3776.12920	0.10806
3774.20063	0.10675
3772.27207	0.10911
3770.34351	0.11509
3768.41494	0.12083
3766.48638	0.12317
3764.55781	0.12374
3762.62925	0.12393
3760.70068	0.12663
3758.77212	0.13308
3756.84355	0.13826
3754.91499	0.14064
3752.98643	0.14647
3751.05786	0.15894
3749.12930	0.16884
3747.20073	0.16881
3745.27217	0.16908
3743.34360	0.17169
3741.41504	0.17177
3739.48647	0.17325
3737.55791	0.18086
3735.62935	0.19494
3733.70078	0.20661
3731.77222	0.20587
3729.84365	0.20110
3727.91509	0.20147
3725.98652	0.20784
3724.05796	0.21576
3722.12939	0.22109
3720.20083	0.22394
3718.27227	0.22556
3716.34370	0.22838
3714.41514	0.23560
3712.48657	0.25069
3710.55801	0.27182
3708.62944	0.28509
3706.70088	0.28946
3704.77231	0.29616
3702.84375	0.30945
3700.91519	0.32759
3698.98662	0.34433
3697.05806	0.35917
3695.12949	0.37667
3693.20093	0.39789
3691.27236	0.42436
3689.34380	0.45743
3687.41523	0.48858
3685.48667	0.51008
3683.55811	0.53020
3681.62954	0.55612
3679.70098	0.58915
3677.77241	0.62714
3675.84385	0.67304
3673.91528	0.72693
3671.98672	0.76533
3670.05815	0.80158
3668.12959	0.84999
3666.20103	0.88918
3664.27246	0.92260
3662.34390	0.96247
3660.41533	1.00808
3658.48677	1.05460
3656.55820	1.10528
3654.62964	1.16067
3652.70107	1.20737
3650.77251	1.25351
3648.84395	1.31866
3646.91538	1.38420
3644.98682	1.42130
3643.05825	1.45034
3641.12969	1.48537
3639.20112	1.52693
3637.27256	1.57021
3635.34399	1.61411
3633.41543	1.65929
3631.48687	1.70259
3629.55830	1.74841
3627.62974	1.80442
3625.70117	1.84794
3623.77261	1.87485
3621.84404	1.90480
3619.91548	1.94399
3617.98691	1.99136
3616.05835	2.03261
3614.12979	2.06553
3612.20122	2.10126
3610.27266	2.13789
3608.34409	2.17606
3606.41553	2.21643
3604.48696	2.25228
3602.55840	2.28528
3600.62983	2.32338
3598.70127	2.36518
3596.77271	2.40549
3594.84414	2.44597
3592.91558	2.48563
3590.98701	2.52080
3589.05845	2.55620
3587.12988	2.60138
3585.20132	2.64604
3583.27275	2.68003
3581.34419	2.71375
3579.41562	2.75224
3577.48706	2.79232
3575.55850	2.83153
3573.62993	2.87197
3571.70137	2.91269
3569.77280	2.95395
3567.84424	3.00182
3565.91567	3.05922
3563.98711	3.10737
3562.05854	3.14212
3560.12998	3.17745
3558.20142	3.21691
3556.27285	3.25919
3554.34429	3.30236
3552.41572	3.34817
3550.48716	3.39569
3548.55859	3.44146
3546.63003	3.48697
3544.70146	3.53385
3542.77290	3.57852
3540.84434	3.61996
3538.91577	3.66304
3536.98721	3.71042
3535.05864	3.76045
3533.13008	3.80773
3531.20151	3.85164
3529.27295	3.89556
3527.34438	3.94228
3525.41582	3.98921
3523.48726	4.03541
3521.55869	4.08424
3519.63013	4.13182
3517.70156	4.17603
3515.77300	4.22029
3513.84443	4.26852
3511.91587	4.31934
3509.98730	4.36673
3508.05874	4.40903
3506.13018	4.45174
3504.20161	4.49786
3502.27305	4.54464
3500.34448	4.59003
3498.41592	4.63456
3496.48735	4.68423
3494.55879	4.74017
3492.63022	4.79273
3490.70166	4.83727
3488.77310	4.87806
3486.84453	4.92147
3484.91597	4.96910
3482.98740	5.01868
3481.05884	5.07018
3479.13027	5.11875
3477.20171	5.16461
3475.27314	5.21407
3473.34458	5.26601
3471.41602	5.31793
3469.48745	5.36728
3467.55889	5.41176
3465.63032	5.45060
3463.70176	5.49193
3461.77319	5.55239
3459.84463	5.61904
3457.91606	5.65854
3455.98750	5.69188
3454.05894	5.74704
3452.13037	5.79792
3450.20181	5.83113
3448.27324	5.86570
3446.34468	5.91091
3444.41611	5.96268
3442.48755	6.02359
3440.55898	6.09429
3438.63042	6.16011
3436.70186	6.20214
3434.77329	6.23384
3432.84473	6.27874
3430.91616	6.32410
3428.98760	6.35748
3427.05903	6.38681
3425.13047	6.43407
3423.20190	6.50225
3421.27334	6.57088
3419.34478	6.63023
3417.41621	6.68335
3415.48765	6.72254
3413.55908	6.74803
3411.63052	6.78053
3409.70195	6.81923
3407.77339	6.86392
3405.84482	6.91193
3403.91626	6.95237
3401.98770	6.97972
3400.05913	7.02200
3398.13057	7.09288
3396.20200	7.14183
3394.27344	7.15777
3392.34487	7.19298
3390.41631	7.26990
3388.48774	7.31542
3386.55918	7.31299
3384.63062	7.33747
3382.70205	7.40531
3380.77349	7.47240
3378.84492	7.51167
3376.91636	7.53430
3374.98779	7.53207
3373.05923	7.51201
3371.13066	7.49898
3369.20210	7.52446
3367.27354	7.58062
3365.34497	7.61286
3363.41641	7.58986
3361.48784	7.56885
3359.55928	7.61657
3357.63071	7.69560
3355.70215	7.76249
3353.77358	7.79564
3351.84502	7.78802
3349.91646	7.78193
3347.98789	7.81540
3346.05933	7.82265
3344.13076	7.76890
3342.20220	7.77623
3340.27363	7.87201
3338.34507	7.91837
3336.41650	7.88892
3334.48794	7.88329
3332.55937	7.85957
3330.63081	7.83308
3328.70225	7.85231
3326.77368	7.85666
3324.84512	7.85546
3322.91655	7.85610
3320.98799	7.81880
3319.05942	7.77698
3317.13086	7.81715
3315.20229	7.93064
3313.27373	8.00177
3311.34517	7.95830
3309.41660	7.89866
3307.48804	7.91235
3305.55947	7.94612
3303.63091	7.94518
3301.70234	7.92714
3299.77378	7.93177
3297.84521	7.94426
3295.91665	7.96015
3293.98809	7.98348
3292.05952	8.00016
3290.13096	8.01877
3288.20239	8.04360
3286.27383	8.07680
3284.34526	8.09800
3282.41670	8.07720
3280.48813	8.03978
3278.55957	8.02731
3276.63101	7.96650
3274.70244	7.86103
3272.77388	7.83759
3270.84531	7.92260
3268.91675	8.03043
3266.98818	8.10278
3265.05962	8.16845
3263.13105	8.17249
3261.20249	8.10678
3259.27393	8.07781
3257.34536	8.09490
3255.41680	8.05749
3253.48823	7.96581
3251.55967	7.94718
3249.63110	8.00508
3247.70254	7.99608
3245.77397	7.88172
3243.84541	7.82533
3241.91685	7.88310
3239.98828	7.96162
3238.05972	8.00952
3236.13115	8.03698
3234.20259	8.04584
3232.27402	8.01001
3230.34546	7.95899
3228.41689	7.91459
3226.48833	7.89453
3224.55977	7.95079
3222.63120	8.02063
3220.70264	8.02089
3218.77407	7.99096
3216.84551	7.95608
3214.91694	7.91888
3212.98838	7.86371
3211.05981	7.76244
3209.13125	7.67220
3207.20269	7.66118
3205.27412	7.70969
3203.34556	7.75186
3201.41699	7.74405
3199.48843	7.67990
3197.55986	7.59432
3195.63130	7.53491
3193.70273	7.48825
3191.77417	7.42700
3189.84561	7.39039
3187.91704	7.38382
3185.98848	7.36008
3184.05991	7.29798
3182.13135	7.20927
3180.20278	7.12899
3178.27422	7.06535
3176.34565	7.01953
3174.41709	6.99964
3172.48853	6.97461
3170.55996	6.92202
3168.63140	6.86728
3166.70283	6.81682
3164.77427	6.75545
3162.84570	6.68416
3160.91714	6.60037
3158.98857	6.51993
3157.06001	6.46885
3155.13145	6.43573
3153.20288	6.38399
3151.27432	6.30010
3149.34575	6.20861
3147.41719	6.13368
3145.48862	6.07902
3143.56006	6.03175
3141.63149	5.97208
3139.70293	5.90214
3137.77437	5.83333
3135.84580	5.76302
3133.91724	5.69992
3131.98867	5.64521
3130.06011	5.58407
3128.13154	5.51625
3126.20298	5.43888
3124.27441	5.34839
3122.34585	5.26227
3120.41729	5.19271
3118.48872	5.12761
3116.56016	5.05989
3114.63159	4.99561
3112.70303	4.93250
3110.77446	4.86428
3108.84590	4.79636
3106.91733	4.73231
3104.98877	4.66321
3103.06021	4.58983
3101.13164	4.52150
3099.20308	4.45918
3097.27451	4.39689
3095.34595	4.32949
3093.41738	4.25989
3091.48882	4.19208
3089.56025	4.12406
3087.63169	4.05663
3085.70312	3.99226
3083.77456	3.92937
3081.84600	3.86736
3079.91743	3.80561
3077.98887	3.74399
3076.06030	3.68395
3074.13174	3.62436
3072.20317	3.56454
3070.27461	3.50675
3068.34604	3.45113
3066.41748	3.39448
3064.48892	3.33640
3062.56035	3.27977
3060.63179	3.22592
3058.70322	3.17295
3056.77466	3.11996
3054.84609	3.06814
3052.91753	3.01748
3050.98896	2.96752
3049.06040	2.91752
3047.13184	2.86724
3045.20327	2.81766
3043.27471	2.76952
3041.34614	2.72242
3039.41758	2.67555
3037.48901	2.62875
3035.56045	2.58254
3033.63188	2.53806
3031.70332	2.49466
3029.77476	2.45119
3027.84619	2.40855
3025.91763	2.36730
3023.98906	2.32668
3022.06050	2.28613
3020.13193	2.24573
3018.20337	2.20578
3016.27480	2.16625
3014.34624	2.12711
3012.41768	2.08889
3010.48911	2.05193
3008.56055	2.01612
3006.63198	1.98094
3004.70342	1.94607
3002.77485	1.91129
3000.84629	1.87651
2998.91772	1.84224
2996.98916	1.80843
2995.06060	1.77500
2993.13203	1.74271
2991.20347	1.71136
2989.27490	1.67991
2987.34634	1.64819
2985.41777	1.61691
2983.48921	1.58666
2981.56064	1.55723
2979.63208	1.52815
2977.70352	1.49949
2975.77495	1.47122
2973.84639	1.44288
2971.91782	1.41466
2969.98926	1.38672
2968.06069	1.35897
2966.13213	1.33193
2964.20356	1.30614
2962.27500	1.28105
2960.34644	1.25551
2958.41787	1.22987
2956.48931	1.20567
2954.56074	1.18324
2952.63218	1.16171
2950.70361	1.14009
2948.77505	1.11795
2946.84648	1.09597
2944.91792	1.07475
2942.98936	1.05384
2941.06079	1.03280
2939.13223	1.01170
2937.20366	0.99088
2935.27510	0.97040
2933.34653	0.94982
2931.41797	0.92921
2929.48940	0.90894
2927.56084	0.88875
2925.63228	0.86845
2923.70371	0.84864
2921.77515	0.82963
2919.84658	0.81112
2917.91802	0.79297
2915.98945	0.77654
2914.06089	0.76438
2912.13232	0.75622
2910.20376	0.74858
2908.27520	0.73920
2906.34663	0.72846
2904.41807	0.71708
2902.48950	0.70547
2900.56094	0.69392
2898.63237	0.68261
2896.70381	0.67142
2894.77524	0.66029
2892.84668	0.64927
2890.91812	0.63832
2888.98955	0.62762
2887.06099	0.61713
2885.13242	0.60649
2883.20386	0.59588
2881.27529	0.58556
2879.34673	0.57532
2877.41816	0.56497
2875.48960	0.55464
2873.56104	0.54451
2871.63247	0.53466
2869.70391	0.52475
2867.77534	0.51482
2865.84678	0.50520
2863.91821	0.49550
2861.98965	0.48519
2860.06108	0.47471
2858.13252	0.46463
2856.20396	0.45458
2854.27539	0.44401
2852.34683	0.43273
2850.41826	0.42155
2848.48970	0.41320
2846.56113	0.40944
2844.63257	0.40824
2842.70400	0.40682
2840.77544	0.40418
2838.84687	0.40036
2836.91831	0.39585
2834.98975	0.39114
2833.06118	0.38634
2831.13262	0.38126
2829.20405	0.37585
2827.27549	0.37039
2825.34692	0.36499
2823.41836	0.35953
2821.48979	0.35403
2819.56123	0.34848
2817.63267	0.34297
2815.70410	0.33784
2813.77554	0.33302
2811.84697	0.32815
2809.91841	0.32324
2807.98984	0.31833
2806.06128	0.31347
2804.13271	0.30882
2802.20415	0.30430
2800.27559	0.29971
2798.34702	0.29515
2796.41846	0.29088
2794.48989	0.28691
2792.56133	0.28297
2790.63276	0.27889
2788.70420	0.27472
2786.77563	0.27068
2784.84707	0.26711
2782.91851	0.26384
2780.98994	0.26026
2779.06138	0.25643
2777.13281	0.25287
2775.20425	0.24950
2773.27568	0.24597
2771.34712	0.24237
2769.41855	0.23902
2767.48999	0.23606
2765.56143	0.23318
2763.63286	0.23025
2761.70430	0.22737
2759.77573	0.22450
2757.84717	0.22149
2755.91860	0.21849
2753.99004	0.21573
2752.06147	0.21314
2750.13291	0.21064
2748.20435	0.20814
2746.27578	0.20559
2744.34722	0.20308
2742.41865	0.20066
2740.49009	0.19832
2738.56152	0.19600
2736.63296	0.19369
2734.70439	0.19155
2732.77583	0.18954
2730.84727	0.18744
2728.91870	0.18536
2726.99014	0.18353
2725.06157	0.18171
2723.13301	0.17980
2721.20444	0.17806
2719.27588	0.17644
2717.34731	0.17468
2715.41875	0.17279
2713.49019	0.17096
2711.56162	0.16923
2709.63306	0.16763
2707.70449	0.16624
2705.77593	0.16503
2703.84736	0.16380
2701.91880	0.16234
2699.99023	0.16076
2698.06167	0.15940
2696.13311	0.15822
2694.20454	0.15693
2692.27598	0.15557
2690.34741	0.15440
2688.41885	0.15331
2686.49028	0.15214
2684.56172	0.15114
2682.63315	0.15031
2680.70459	0.14937
2678.77603	0.14828
2676.84746	0.14720
2674.91890	0.14625
2672.99033	0.14541
2671.06177	0.14458
2669.13320	0.14380
2667.20464	0.14307
2665.27607	0.14222
2663.34751	0.14129
2661.41895	0.14057
2659.49038	0.14005
2657.56182	0.13952
2655.63325	0.13892
2653.70469	0.13831
2651.77612	0.13768
2649.84756	0.13715
2647.91899	0.13683
2645.99043	0.13657
2644.06187	0.13619
2642.13330	0.13559
2640.20474	0.13505
2638.27617	0.13478
2636.34761	0.13461
2634.41904	0.13436
2632.49048	0.13410
2630.56191	0.13392
2628.63335	0.13379
2626.70479	0.13366
2624.77622	0.13345
2622.84766	0.13314
2620.91909	0.13290
2618.99053	0.13291
2617.06196	0.13306
2615.13340	0.13319
2613.20483	0.13321
2611.27627	0.13309
2609.34771	0.13304
2607.41914	0.13306
2605.49058	0.13294
2603.56201	0.13280
2601.63345	0.13294
2599.70488	0.13333
2597.77632	0.13373
2595.84775	0.13399
2593.91919	0.13411
2591.99062	0.13426
2590.06206	0.13449
2588.13350	0.13473
2586.20493	0.13506
2584.27637	0.13546
2582.34780	0.13586
2580.41924	0.13627
2578.49067	0.13664
2576.56211	0.13695
2574.63354	0.13729
2572.70498	0.13777
2570.77642	0.13837
2568.84785	0.13896
2566.91929	0.13953
2564.99072	0.14016
2563.06216	0.14071
2561.13359	0.14113
2559.20503	0.14166
2557.27646	0.14234
2555.34790	0.14300
2553.41934	0.14363
2551.49077	0.14432
2549.56221	0.14502
2547.63364	0.14562
2545.70508	0.14625
2543.77651	0.14698
2541.84795	0.14767
2539.91938	0.14832
2537.99082	0.14901
2536.06226	0.14970
2534.13369	0.15047
2532.20513	0.15136
2530.27656	0.15224
2528.34800	0.15308
2526.41943	0.15392
2524.49087	0.15470
2522.56230	0.15538
2520.63374	0.15615
2518.70518	0.15713
2516.77661	0.15820
2514.84805	0.15918
2512.91948	0.16005
2510.99092	0.16080
2509.06235	0.16153
2507.13379	0.16239
2505.20522	0.16341
2503.27666	0.16438
2501.34810	0.16525
2499.41953	0.16617
2497.49097	0.16707
2495.56240	0.16794
2493.63384	0.16884
2491.70527	0.16982
2489.77671	0.17095
2487.84814	0.17211
2485.91958	0.17309
2483.99102	0.17390
2482.06245	0.17478
2480.13389	0.17585
2478.20532	0.17698
2476.27676	0.17800
2474.34819	0.17896
2472.41963	0.17985
2470.49106	0.18061
2468.56250	0.18143
2466.63394	0.18245
2464.70537	0.18356
2462.77681	0.18469
2460.84824	0.18583
2458.91968	0.18690
2456.99111	0.18789
2455.06255	0.18897
2453.13398	0.19015
2451.20542	0.19123
2449.27686	0.19221
2447.34829	0.19331
2445.41973	0.19439
2443.49116	0.19536
2441.56260	0.19638
2439.63403	0.19746
2437.70547	0.19847
2435.77690	0.19953
2433.84834	0.20069
2431.91978	0.20182
2429.99121	0.20300
2428.06265	0.20427
2426.13408	0.20551
2424.20552	0.20666
2422.27695	0.20781
2420.34839	0.20900
2418.41982	0.21018
2416.49126	0.21132
2414.56270	0.21247
2412.63413	0.21368
2410.70557	0.21492
2408.77700	0.21616
2406.84844	0.21742
2404.91987	0.21868
2402.99131	0.21992
2401.06274	0.22118
2399.13418	0.22249
2397.20562	0.22378
2395.27705	0.22497
2393.34849	0.22615
2391.41992	0.22750
2389.49136	0.22920
2387.56279	0.23165
2385.63423	0.23538
2383.70566	0.24100
2381.77710	0.24878
2379.84854	0.25830
2377.91997	0.26915
2375.99141	0.28155
2374.06284	0.29595
2372.13428	0.31233
2370.20571	0.33009
2368.27715	0.34856
2366.34858	0.36700
2364.42002	0.38338
2362.49146	0.39543
2360.56289	0.40219
2358.63433	0.40311
2356.70576	0.39672
2354.77720	0.38259
2352.84863	0.36476
2350.92007	0.34748
2348.99150	0.33660
2347.06294	0.33671
2345.13437	0.34895
2343.20581	0.36611
2341.27725	0.37504
2339.34868	0.37552
2337.42012	0.37427
2335.49155	0.37345
2333.56299	0.37208
2331.63442	0.37068
2329.70586	0.36918
2327.77729	0.36670
2325.84873	0.36327
2323.92017	0.35943
2321.99160	0.35511
2320.06304	0.34962
2318.13447	0.34335
2316.20591	0.33804
2314.27734	0.33485
2312.34878	0.33330
2310.42021	0.33197
2308.49165	0.32978
2306.56309	0.32678
2304.63452	0.32402
2302.70596	0.32246
2300.77739	0.32190
2298.84883	0.32167
2296.92026	0.32164
2294.99170	0.32165
2293.06313	0.32142
2291.13457	0.32122
2289.20601	0.32134
2287.27744	0.32153
2285.34888	0.32171
2283.42031	0.32242
2281.49175	0.32408
2279.56318	0.32646
2277.63462	0.32902
2275.70605	0.33157
2273.77749	0.33390
2271.84893	0.33593
2269.92036	0.33793
2267.99180	0.34006
2266.06323	0.34217
2264.13467	0.34403
2262.20610	0.34576
2260.27754	0.34756
2258.34897	0.34939
2256.42041	0.35127
2254.49185	0.35319
2252.56328	0.35502
2250.63472	0.35679
2248.70615	0.35872
2246.77759	0.36079
2244.84902	0.36287
2242.92046	0.36489
2240.99189	0.36686
2239.06333	0.36893
2237.13477	0.37109
2235.20620	0.37317
2233.27764	0.37523
2231.34907	0.37743
2229.42051	0.37970
2227.49194	0.38191
2225.56338	0.38403
2223.63481	0.38618
2221.70625	0.38853
2219.77769	0.39093
2217.84912	0.39320
2215.92056	0.39533
2213.99199	0.39741
2212.06343	0.39947
2210.13486	0.40161
2208.20630	0.40385
2206.27773	0.40601
2204.34917	0.40796
2202.42061	0.40991
2200.49204	0.41193
2198.56348	0.41386
2196.63491	0.41566
2194.70635	0.41759
2192.77778	0.41968
2190.84922	0.42171
2188.92065	0.42354
2186.99209	0.42524
2185.06353	0.42694
2183.13496	0.42867
2181.20640	0.43035
2179.27783	0.43195
2177.34927	0.43346
2175.42070	0.43489
2173.49214	0.43638
2171.56357	0.43794
2169.63501	0.43939
2167.70645	0.44064
2165.77788	0.44183
2163.84932	0.44303
2161.92075	0.44420
2159.99219	0.44524
2158.06362	0.44619
2156.13506	0.44718
2154.20649	0.44810
2152.27793	0.44892
2150.34937	0.44972
2148.42080	0.45042
2146.49224	0.45100
2144.56367	0.45148
2142.63511	0.45181
2140.70654	0.45203
2138.77798	0.45225
2136.84941	0.45247
2134.92085	0.45259
2132.99229	0.45248
2131.06372	0.45225
2129.13516	0.45203
2127.20659	0.45177
2125.27803	0.45150
2123.34946	0.45117
2121.42090	0.45078
2119.49233	0.45027
2117.56377	0.44952
2115.63521	0.44860
2113.70664	0.44771
2111.77808	0.44688
2109.84951	0.44592
2107.92095	0.44483
2105.99238	0.44373
2104.06382	0.44265
2102.13525	0.44144
2100.20669	0.44003
2098.27812	0.43854
2096.34956	0.43701
2094.42100	0.43544
2092.49243	0.43395
2090.56387	0.43251
2088.63530	0.43079
2086.70674	0.42877
2084.77817	0.42677
2082.84961	0.42489
2080.92104	0.42296
2078.99248	0.42096
2077.06392	0.41892
2075.13535	0.41679
2073.20679	0.41460
2071.27822	0.41237
2069.34966	0.41012
2067.42109	0.40802
2065.49253	0.40600
2063.56396	0.40364
2061.63540	0.40096
2059.70684	0.39828
2057.77827	0.39571
2055.84971	0.39325
2053.92114	0.39088
2051.99258	0.38841
2050.06401	0.38574
2048.13545	0.38299
2046.20688	0.38032
2044.27832	0.37781
2042.34976	0.37532
2040.42119	0.37258
2038.49263	0.36961
2036.56406	0.36678
2034.63550	0.36404
2032.70693	0.36124
2030.77837	0.35845
2028.84980	0.35569
2026.92124	0.35294
2024.99268	0.35022
2023.06411	0.34760
2021.13555	0.34511
2019.20698	0.34286
2017.27842	0.34063
2015.34985	0.33774
2013.42129	0.33445
2011.49272	0.33141
2009.56416	0.32860
2007.63560	0.32583
2005.70703	0.32316
2003.77847	0.32061
2001.84990	0.31810
1999.92134	0.31555
1997.99277	0.31289
1996.06421	0.31036
1994.13564	0.30842
1992.20708	0.30678
1990.27852	0.30437
1988.34995	0.30129
1986.42139	0.29827
1984.49282	0.29548
1982.56426	0.29295
1980.63569	0.29060
1978.70713	0.28836
1976.77856	0.28619
1974.85000	0.28401
1972.92144	0.28184
1970.99287	0.27987
1969.06431	0.27842
1967.13574	0.27715
1965.20718	0.27509
1963.27861	0.27246
1961.35005	0.27015
1959.42148	0.26814
1957.49292	0.26620
1955.56436	0.26442
1953.63579	0.26273
1951.70723	0.26101
1949.77866	0.25943
1947.85010	0.25820
1945.92153	0.25735
1943.99297	0.25681
1942.06440	0.25580
1940.13584	0.25349
1938.20728	0.25099
1936.27871	0.24933
1934.35015	0.24811
1932.42158	0.24686
1930.49302	0.24550
1928.56445	0.24425
1926.63589	0.24345
1924.70732	0.24352
1922.77876	0.24370
1920.85020	0.24284
1918.92163	0.24183
1916.99307	0.24085
1915.06450	0.23909
1913.13594	0.23763
1911.20737	0.23737
1909.27881	0.23735
1907.35024	0.23641
1905.42168	0.23500
1903.49312	0.23401
1901.56455	0.23339
1899.63599	0.23286
1897.70742	0.23267
1895.77886	0.23287
1893.85029	0.23279
1891.92173	0.23261
1889.99316	0.23307
1888.06460	0.23289
1886.13604	0.23168
1884.20747	0.23079
1882.27891	0.23033
1880.35034	0.23005
1878.42178	0.23004
1876.49321	0.23008
1874.56465	0.23010
1872.63608	0.23076
1870.70752	0.23295
1868.77896	0.23597
1866.85039	0.23630
1864.92183	0.23392
1862.99326	0.23215
1861.06470	0.23183
1859.13613	0.23220
1857.20757	0.23254
1855.27900	0.23284
1853.35044	0.23326
1851.42187	0.23395
1849.49331	0.23520
1847.56475	0.23724
1845.63618	0.23991
1843.70762	0.24179
1841.77905	0.24096
1839.85049	0.23954
1837.92192	0.23978
1835.99336	0.24071
1834.06479	0.24156
1832.13623	0.24356
1830.20767	0.24714
1828.27910	0.24933
1826.35054	0.24950
1824.42197	0.24992
1822.49341	0.24991
1820.56484	0.24986
1818.63628	0.25085
1816.70771	0.25253
1814.77915	0.25434
1812.85059	0.25686
1810.92202	0.25999
1808.99346	0.26213
1807.06489	0.26324
1805.13633	0.26467
1803.20776	0.26752
1801.27920	0.27146
1799.35063	0.27485
1797.42207	0.27701
1795.49351	0.27957
1793.56494	0.28375
1791.63638	0.28839
1789.70781	0.29001
1787.77925	0.29019
1785.85068	0.29255
1783.92212	0.29661
1781.99355	0.30120
1780.06499	0.30591
1778.13643	0.30992
1776.20786	0.31399
1774.27930	0.32012
1772.35073	0.32863
1770.42217	0.33494
1768.49360	0.33772
1766.56504	0.34045
1764.63647	0.34463
1762.70791	0.35105
1760.77935	0.35911
1758.85078	0.36574
1756.92222	0.37231
1754.99365	0.37923
1753.06509	0.38620
1751.13652	0.39661
1749.20796	0.40948
1747.27939	0.41931
1745.35083	0.42645
1743.42227	0.43462
1741.49370	0.44451
1739.56514	0.45645
1737.63657	0.46834
1735.70801	0.48021
1733.77944	0.49916
1731.85088	0.51837
1729.92231	0.53096
1727.99375	0.54400
1726.06519	0.55937
1724.13662	0.57782
1722.20806	0.59835
1720.27949	0.61841
1718.35093	0.64401
1716.42236	0.67909
1714.49380	0.70670
1712.56523	0.72672
1710.63667	0.74776
1708.70811	0.77275
1706.77954	0.80275
1704.85098	0.83756
1702.92241	0.86729
1700.99385	0.89769
1699.06528	0.94346
1697.13672	0.98292
1695.20815	1.01923
1693.27959	1.05344
1691.35103	1.08251
1689.42246	1.11807
1687.49390	1.15561
1685.56533	1.19235
1683.63677	1.24778
1681.70820	1.30102
1679.77964	1.33291
1677.85107	1.36453
1675.92251	1.40275
1673.99395	1.45032
1672.06538	1.49252
1670.13682	1.53386
1668.20825	1.58411
1666.27969	1.62199
1664.35112	1.65476
1662.42256	1.69669
1660.49399	1.74280
1658.56543	1.77811
1656.63687	1.80827
1654.70830	1.83923
1652.77974	1.89062
1650.85117	1.93871
1648.92261	1.95897
1646.99404	1.98860
1645.06548	2.01894
1643.13691	2.03565
1641.20835	2.04672
1639.27979	2.05920
1637.35122	2.06920
1635.42266	2.07400
1633.49409	2.07131
1631.56553	2.06106
1629.63696	2.04810
1627.70840	2.02772
1625.77983	2.00448
1623.85127	1.97330
1621.92271	1.93161
1619.99414	1.89230
1618.06558	1.85433
1616.13701	1.80065
1614.20845	1.74405
1612.27988	1.70076
1610.35132	1.65683
1608.42275	1.60867
1606.49419	1.55925
1604.56562	1.51276
1602.63706	1.46796
1600.70850	1.42405
1598.77993	1.38358
1596.85137	1.34575
1594.92280	1.30874
1592.99424	1.27217
1591.06567	1.23806
1589.13711	1.20582
1587.20854	1.17543
1585.27998	1.14701
1583.35142	1.11988
1581.42285	1.09443
1579.49429	1.07306
1577.56572	1.05518
1575.63716	1.03182
1573.70859	1.00759
1571.78003	0.99133
1569.85146	0.97545
1567.92290	0.95580
1565.99434	0.93868
1564.06577	0.92433
1562.13721	0.91340
1560.20864	0.90731
1558.28008	0.89494
1556.35151	0.87505
1554.42295	0.86034
1552.49438	0.84760
1550.56582	0.83664
1548.63726	0.82611
1546.70869	0.81743
1544.78013	0.81220
1542.85156	0.80945
1540.92300	0.80581
1538.99443	0.79210
1537.06587	0.77730
1535.13730	0.77007
1533.20874	0.76422
1531.28018	0.75609
1529.35161	0.74958
1527.42305	0.74542
1525.49448	0.74176
1523.56592	0.73868
1521.63735	0.73544
1519.70879	0.72884
1517.78022	0.72160
1515.85166	0.71417
1513.92310	0.70674
1511.99453	0.70226
1510.06597	0.70143
1508.13740	0.70345
1506.20884	0.69947
1504.28027	0.68755
1502.35171	0.68047
1500.42314	0.67747
1498.49458	0.67618
1496.56602	0.67338
1494.63745	0.66817
1492.70889	0.66473
1490.78032	0.66473
1488.85176	0.66424
1486.92319	0.65903
1484.99463	0.65275
1483.06606	0.64843
1481.13750	0.64553
1479.20894	0.64302
1477.28037	0.64142
1475.35181	0.64107
1473.42324	0.64043
1471.49468	0.63539
1469.56611	0.62788
1467.63755	0.62326
1465.70898	0.62149
1463.78042	0.61972
1461.85186	0.61751
1459.92329	0.61776
1457.99473	0.62055
1456.06616	0.61882
1454.13760	0.61184
1452.20903	0.60719
1450.28047	0.60510
1448.35190	0.60397
1446.42334	0.60190
1444.49478	0.59915
1442.56621	0.59708
1440.63765	0.59594
1438.70908	0.59607
1436.78052	0.59696
1434.85195	0.59579
1432.92339	0.59323
1430.99482	0.59154
1429.06626	0.58999
1427.13770	0.58809
1425.20913	0.58708
1423.28057	0.58662
1421.35200	0.58599
1419.42344	0.58582
1417.49487	0.58424
1415.56631	0.58048
1413.63774	0.57735
1411.70918	0.57547
1409.78062	0.57388
1407.85205	0.57253
1405.92349	0.57196
1403.99492	0.57111
1402.06636	0.56963
1400.13779	0.56915
1398.20923	0.56945
1396.28066	0.56899
1394.35210	0.56697
1392.42354	0.56375
1390.49497	0.56154
1388.56641	0.56106
1386.63784	0.56040
1384.70928	0.55820
1382.78071	0.55607
1380.85215	0.55492
1378.92358	0.55436
1376.99502	0.55437
1375.06646	0.55485
1373.13789	0.55418
1371.20933	0.55216
1369.28076	0.55054
1367.35220	0.54932
1365.42363	0.54853
1363.49507	0.54883
1361.56650	0.54859
1359.63794	0.54656
1357.70937	0.54459
1355.78081	0.54349
1353.85225	0.54260
1351.92368	0.54160
1349.99512	0.54074
1348.06655	0.53989
1346.13799	0.53896
1344.20942	0.53827
1342.28086	0.53827
1340.35229	0.53896
1338.42373	0.53872
1336.49517	0.53669
1334.56660	0.53443
1332.63804	0.53290
1330.70947	0.53196
1328.78091	0.53116
1326.85234	0.53025
1324.92378	0.52937
1322.99521	0.52875
1321.06665	0.52853
1319.13809	0.52835
1317.20952	0.52760
1315.28096	0.52643
1313.35239	0.52530
1311.42383	0.52412
1309.49526	0.52293
1307.56670	0.52190
1305.63813	0.52094
1303.70957	0.52004
1301.78101	0.51922
1299.85244	0.51845
1297.92388	0.51778
1295.99531	0.51713
1294.06675	0.51641
1292.13818	0.51570
1290.20962	0.51518
1288.28105	0.51472
1286.35249	0.51404
1284.42393	0.51337
1282.49536	0.51302
1280.56680	0.51270
1278.63823	0.51211
1276.70967	0.51151
1274.78110	0.51109
1272.85254	0.51075
1270.92397	0.51028
1268.99541	0.50971
1267.06685	0.50923
1265.13828	0.50878
1263.20972	0.50827
1261.28115	0.50785
1259.35259	0.50753
1257.42402	0.50715
1255.49546	0.50677
1253.56689	0.50649
1251.63833	0.50619
1249.70977	0.50584
1247.78120	0.50566
1245.85264	0.50556
1243.92407	0.50536
1241.99551	0.50507
1240.06694	0.50466
1238.13838	0.50415
1236.20981	0.50364
1234.28125	0.50307
1232.35269	0.50243
1230.42412	0.50186
1228.49556	0.50149
1226.56699	0.50115
1224.63843	0.50066
1222.70986	0.49992
1220.78130	0.49909
1218.85273	0.49840
1216.92417	0.49782
1214.99561	0.49727
1213.06704	0.49683
1211.13848	0.49641
1209.20991	0.49586
1207.28135	0.49534
1205.35278	0.49490
1203.42422	0.49443
1201.49565	0.49390
1199.56709	0.49327
1197.63853	0.49265
1195.70996	0.49221
1193.78140	0.49180
1191.85283	0.49127
1189.92427	0.49077
1187.99570	0.49033
1186.06714	0.48991
1184.13857	0.48968
1182.21001	0.48969
1180.28145	0.48999
1178.35288	0.49054
1176.42432	0.49117
1174.49575	0.49170
1172.56719	0.49212
1170.63862	0.49262
1168.71006	0.49316
1166.78149	0.49348
1164.85293	0.49369
1162.92437	0.49391
1160.99580	0.49399
1159.06724	0.49376
1157.13867	0.49323
1155.21011	0.49242
1153.28154	0.49124
1151.35298	0.48984
1149.42441	0.48829
1147.49585	0.48650
1145.56729	0.48450
1143.63872	0.48232
1141.71016	0.47989
1139.78159	0.47746
1137.85303	0.47540
1135.92446	0.47361
1133.99590	0.47188
1132.06733	0.47027
1130.13877	0.46871
1128.21021	0.46700
1126.28164	0.46531
1124.35308	0.46394
1122.42451	0.46282
1120.49595	0.46192
1118.56738	0.46162
1116.63882	0.46172
1114.71025	0.46175
1112.78169	0.46183
1110.85312	0.46211
1108.92456	0.46271
1106.99600	0.46371
1105.06743	0.46498
1103.13887	0.46649
1101.21030	0.46827
1099.28174	0.47047
1097.35317	0.47315
1095.42461	0.47616
1093.49604	0.47951
1091.56748	0.48340
1089.63892	0.48782
1087.71035	0.49288
1085.78179	0.49884
1083.85322	0.50536
1081.92466	0.51167
1079.99609	0.51721
1078.06753	0.52130
1076.13896	0.52290
1074.21040	0.52152
1072.28184	0.51783
1070.35327	0.51271
1068.42471	0.50659
1066.49614	0.50008
1064.56758	0.49388
1062.63901	0.48824
1060.71045	0.48333
1058.78188	0.47920
1056.85332	0.47545
1054.92476	0.47193
1052.99619	0.46902
1051.06763	0.46676
1049.13906	0.46464
1047.21050	0.46268
1045.28193	0.46118
1043.35337	0.45996
1041.42480	0.45903
1039.49624	0.45848
1037.56768	0.45808
1035.63911	0.45778
1033.71055	0.45770
1031.78198	0.45774
1029.85342	0.45791
1027.92485	0.45819
1025.99629	0.45845
1024.06772	0.45889
1022.13916	0.45965
1020.21060	0.46046
1018.28203	0.46123
1016.35347	0.46213
1014.42490	0.46317
1012.49634	0.46443
1010.56777	0.46584
1008.63921	0.46726
1006.71064	0.46891
1004.78208	0.47108
1002.85352	0.47365
1000.92495	0.47644
998.99639	0.47956
997.06782	0.48298
995.13926	0.48651
993.21069	0.49002
991.28213	0.49306
989.35356	0.49538
987.42500	0.49716
985.49644	0.49844
983.56787	0.49932
981.63931	0.50027
979.71074	0.50170
977.78218	0.50367
975.85361	0.50611
973.92505	0.50880
971.99648	0.51164
970.06792	0.51479
968.13936	0.51849
966.21079	0.52286
964.28223	0.52758
962.35366	0.53238
960.42510	0.53740
958.49653	0.54261
956.56797	0.54792
954.63940	0.55354
952.71084	0.55961
950.78228	0.56598
948.85371	0.57238
946.92515	0.57856
944.99658	0.58444
943.06802	0.59013
941.13945	0.59580
939.21089	0.60157
937.28232	0.60736
935.35376	0.61282
933.42520	0.61806
931.49663	0.62353
929.56807	0.62943
927.63950	0.63559
925.71094	0.64142
923.78237	0.64705
921.85381	0.65339
919.92524	0.66040
917.99668	0.66738
916.06812	0.67432
914.13955	0.68178
912.21099	0.68948
910.28242	0.69685
908.35386	0.70395
906.42529	0.71127
904.49673	0.71964
902.56816	0.72890
900.63960	0.73809
898.71104	0.74722
896.78247	0.75667
894.85391	0.76654
892.92534	0.77656
890.99678	0.78612
889.06821	0.79582
887.13965	0.80680
885.21108	0.81867
883.28252	0.83010
881.35396	0.84059
879.42539	0.85139
877.49683	0.86274
875.56826	0.87305
873.63970	0.88289
871.71113	0.89397
869.78257	0.90551
867.85400	0.91595
865.92544	0.92570
863.99687	0.93654
862.06831	0.94894
860.13975	0.96078
858.21118	0.97010
856.28262	0.97860
854.35405	0.98879
852.42549	1.00034
850.49692	1.01236
848.56836	1.02464
846.63979	1.03600
844.71123	1.04540
842.78267	1.05421
840.85410	1.06443
838.92554	1.07610
836.99697	1.08957
835.06841	1.10412
833.13984	1.11658
831.21128	1.12457
829.28271	1.12946
827.35415	1.13511
825.42559	1.14206
823.49702	1.15161
821.56846	1.16560
819.63989	1.17988
817.71133	1.19089
815.78276	1.19981
813.85420	1.20815
811.92563	1.21875
809.99707	1.23070
808.06851	1.23775
806.13994	1.24293
804.21138	1.25271
802.28281	1.26524
800.35425	1.27104
798.42568	1.26867
796.49712	1.27121
794.56855	1.28561
792.63999	1.30263
790.71143	1.31378
788.78286	1.32012
786.85430	1.29949
784.92573	1.25757
782.99717	1.23871
781.06860	1.24767
779.14004	1.24471
777.21147	1.22304
775.28291	1.22565
773.35435	1.24852
771.42578	1.25947
769.49722	1.25828
767.56865	1.24614
765.64009	1.21800
763.71152	1.19376
761.78296	1.19900
759.85439	1.21362
757.92583	1.21215
755.99727	1.21265
754.06870	1.21916
752.14014	1.20021
750.21157	1.19308
748.28301	1.22232
746.35444	1.17981
744.42588	1.08346
742.49731	0.99029
740.56875	0.90343
738.64019	0.88403
736.71162	0.88278
734.78306	0.77370
732.85449	0.64644
730.92593	0.57034
728.99736	0.50508
727.06880	0.42332
725.14023	0.36891
723.21167	0.37395
721.28311	0.36179
719.35454	0.29270
717.42598	0.23917
715.49741	0.22922
713.56885	0.17740
711.64028	0.04866
709.71172	-0.08426
707.78315	-0.07587
705.85459	0.03881
703.92603	0.10119
701.99746	0.11477
700.06890	0.15221
698.14033	0.19091
696.21177	0.20139
694.28320	0.20019
692.35464	0.18106
690.42607	0.15714
688.49751	0.09921
686.56895	0.06493
684.64038	0.13427
682.71182	0.29903
680.78325	0.37871
678.85469	0.17967
676.92612	0.02954
674.99756	0.01404
673.06899	0.05048
671.14043	0.09924
669.21187	0.19265
667.28330	0.25777
665.35474	0.17370
663.42617	0.02699
661.49761	-0.00132
659.56904	0.04609
657.64048	0.12841
655.71191	0.22592
653.78335	0.23202
651.85479	0.11186
649.92622	0.04136
647.99766	0.09182
646.06909	0.21469
644.14053	0.33220
642.21196	0.30631
640.28340	0.17052
638.35483	0.10067
636.42627	0.12835
634.49771	0.14216
632.56914	0.09580
630.64058	0.05568
628.71201	0.10836
626.78345	0.18913
624.85488	0.12287
622.92632	-0.00958
620.99775	-0.03955
619.06919	0.06920
617.14062	0.13287
615.21206	0.07211
613.28350	0.05060
611.35493	0.08921
609.42637	0.14455
607.49780	0.20007
605.56924	0.17456
603.64067	0.13422
601.71211	0.16176
599.78354	0.19939
597.85498	0.16027
595.92642	0.08218
593.99785	0.02913
592.06929	0.05913
590.14072	0.18088
588.21216	0.26284
586.28359	0.23125
584.35503	0.12573
582.42646	0.05389
580.49790	0.03293
578.56934	0.00024
576.64077	0.02917
574.71221	0.18868
572.78364	0.33598
570.85508	0.28654
568.92651	0.24248
566.99795	0.23141
565.06938	0.16433
563.14082	0.09905
561.21226	0.10935
559.28369	0.12899
557.35513	0.13055
555.42656	0.16025
553.49800	0.21327
551.56943	0.23170
549.64087	0.22148
547.71230	0.18882
545.78374	0.10092
543.85518	0.02445
541.92661	-0.00559
539.99805	0.02345
538.06948	0.07271
536.14092	0.10365
534.21235	0.13106
532.28379	0.18796
530.35522	0.26647
528.42666	0.26803
526.49810	0.18774
524.56953	0.14804
522.64097	0.15596
520.71240	0.15662
518.78384	0.17243
516.85527	0.22971
514.92671	0.25358
512.99814	0.21160
511.06958	0.19026
509.14102	0.18044
507.21245	0.15127
505.28389	0.12741
503.35532	0.11400
501.42676	0.11769
499.49819	0.13129
