3997.91411	0.10531
3995.98555	0.10526
3994.05698	0.10546
3992.12842	0.10562
3990.19985	0.10583
3988.27129	0.10616
3986.34272	0.10650
3984.41416	0.10721
3982.48560	0.10808
3980.55703	0.10810
3978.62847	0.10765
3976.69990	0.10783
3974.77134	0.10853
3972.84277	0.10919
3970.91421	0.10949
3968.98564	0.10933
3967.05708	0.10894
3965.12852	0.10861
3963.19995	0.10878
3961.27139	0.10926
3959.34282	0.10938
3957.41426	0.10919
3955.48569	0.10912
3953.55713	0.10932
3951.62856	0.10985
3949.70000	0.11032
3947.77144	0.11052
3945.84287	0.11052
3943.91431	0.11054
3941.98574	0.11068
3940.05718	0.11038
3938.12861	0.10978
3936.20005	0.10953
3934.27148	0.10990
3932.34292	0.11045
3930.41436	0.11050
3928.48579	0.11022
3926.55723	0.11016
3924.62866	0.11036
3922.70010	0.11041
3920.77153	0.11016
3918.84297	0.11003
3916.91440	0.11021
3914.98584	0.10994
3913.05728	0.10887
3911.12871	0.10809
3909.20015	0.10807
3907.27158	0.10864
3905.34302	0.11021
3903.41445	0.11231
3901.48589	0.11288
3899.55732	0.11198
3897.62876	0.11077
3895.70020	0.10943
3893.77163	0.10892
3891.84307	0.10983
3889.91450	0.11033
3887.98594	0.10945
3886.05737	0.10968
3884.12881	0.11127
3882.20024	0.11207
3880.27168	0.11201
3878.34312	0.11094
3876.41455	0.10982
3874.48599	0.11056
3872.55742	0.11241
3870.62886	0.11380
3868.70029	0.11442
3866.77173	0.11386
3864.84316	0.11366
3862.91460	0.11425
3860.98604	0.11348
3859.05747	0.11212
3857.12891	0.11204
3855.20034	0.11350
3853.27178	0.11666
3851.34321	0.11888
3849.41465	0.11724
3847.48608	0.11516
3845.55752	0.11444
3843.62896	0.11532
3841.70039	0.11736
3839.77183	0.11965
3837.84326	0.12146
3835.91470	0.12178
3833.98613	0.12090
3832.05757	0.12004
3830.12900	0.11993
3828.20044	0.12057
3826.27187	0.12152
3824.34331	0.12259
3822.41475	0.12442
3820.48618	0.12735
3818.55762	0.12858
3816.62905	0.12803
3814.70049	0.12752
3812.77192	0.12656
3810.84336	0.12600
3808.91479	0.12698
3806.98623	0.12951
3805.05767	0.13192
3803.12910	0.13341
3801.20054	0.13593
3799.27197	0.13832
3797.34341	0.13834
3795.41484	0.13769
3793.48628	0.13705
3791.55771	0.13671
3789.62915	0.13714
3787.70059	0.13813
3785.77202	0.13966
3783.84346	0.14176
3781.91489	0.14375
3779.98633	0.14578
3778.05776	0.14776
3776.12920	0.14843
3774.20063	0.14874
3772.27207	0.15026
3770.34351	0.15326
3768.41494	0.15665
3766.48638	0.15883
3764.55781	0.16026
3762.62925	0.16178
3760.70068	0.16413
3758.77212	0.16761
3756.84355	0.17047
3754.91499	0.17229
3752.98643	0.17518
3751.05786	0.18045
3749.12930	0.18585
3747.20073	0.18776
3745.27217	0.18883
3743.34360	0.19169
3741.41504	0.19463
3739.48647	0.19672
3737.55791	0.19976
3735.62935	0.20532
3733.70078	0.21225
3731.77222	0.21636
3729.84365	0.21829
3727.91509	0.22107
3725.98652	0.22628
3724.05796	0.23333
3722.12939	0.24067
3720.20083	0.24757
3718.27227	0.25360
3716.34370	0.25973
3714.41514	0.26673
3712.48657	0.27620
3710.55801	0.29046
3708.62944	0.30510
3706.70088	0.31538
3704.77231	0.32485
3702.84375	0.33724
3700.91519	0.35417
3698.98662	0.37213
3697.05806	0.38882
3695.12949	0.40700
3693.20093	0.42707
3691.27236	0.44974
3689.34380	0.47886
3687.41523	0.51277
3685.48667	0.54148
3683.55811	0.56615
3681.62954	0.59309
3679.70098	0.62450
3677.77241	0.65830
3675.84385	0.69828
3673.91528	0.75144
3671.98672	0.79472
3670.05815	0.83314
3668.12959	0.88455
3666.20103	0.93054
3664.27246	0.96945
3662.34390	1.01205
3660.41533	1.05854
3658.48677	1.10456
3656.55820	1.15344
3654.62964	1.20770
3652.70107	1.25362
3650.77251	1.29462
3648.84395	1.35143
3646.91538	1.41909
3644.98682	1.46689
3643.05825	1.50329
3641.12969	1.54186
3639.20112	1.58552
3637.27256	1.62959
3635.34399	1.67262
3633.41543	1.71613
3631.48687	1.75746
3629.55830	1.79936
3627.62974	1.85219
3625.70117	1.90049
3623.77261	1.93381
3621.84404	1.96607
3619.91548	2.00318
3617.98691	2.04897
3616.05835	2.09415
3614.12979	2.13184
3612.20122	2.17036
3610.27266	2.20871
3608.34409	2.24776
3606.41553	2.29005
3604.48696	2.32904
3602.55840	2.36360
3600.62983	2.40179
3598.70127	2.44350
3596.77271	2.48297
3594.84414	2.52257
3592.91558	2.56476
3590.98701	2.60524
3589.05845	2.64248
3587.12988	2.68565
3585.20132	2.73298
3583.27275	2.77321
3581.34419	2.81025
3579.41562	2.85055
3577.48706	2.89349
3575.55850	2.93593
3573.62993	2.97904
3571.70137	3.02126
3569.77280	3.05992
3567.84424	3.09982
3565.91567	3.15249
3563.98711	3.20678
3562.05854	3.24925
3560.12998	3.28994
3558.20142	3.33363
3556.27285	3.37734
3554.34429	3.42060
3552.41572	3.46723
3550.48716	3.51479
3548.55859	3.55921
3546.63003	3.60280
3544.70146	3.65013
3542.77290	3.70019
3540.84434	3.75004
3538.91577	3.79907
3536.98721	3.84516
3535.05864	3.88969
3533.13008	3.93454
3531.20151	3.98009
3529.27295	4.02742
3527.34438	4.07853
3525.41582	4.12717
3523.48726	4.17103
3521.55869	4.21922
3519.63013	4.26995
3517.70156	4.31644
3515.77300	4.35919
3513.84443	4.40646
3511.91587	4.46163
3509.98730	4.51660
3508.05874	4.56518
3506.13018	4.60988
3504.20161	4.65402
3502.27305	4.69729
3500.34448	4.74055
3498.41592	4.78821
3496.48735	4.84400
3494.55879	4.90018
3492.63022	4.94439
3490.70166	4.98037
3488.77310	5.01964
3486.84453	5.06832
3484.91597	5.12508
3482.98740	5.17886
3481.05884	5.22412
3479.13027	5.26667
3477.20171	5.31314
3475.27314	5.36351
3473.34458	5.41142
3471.41602	5.45472
3469.48745	5.49856
3467.55889	5.54942
3465.63032	5.60612
3463.70176	5.66289
3461.77319	5.71834
3459.84463	5.77081
3457.91606	5.81195
3455.98750	5.84859
3454.05894	5.89459
3452.13037	5.94605
3450.20181	5.99363
3448.27324	6.03040
3446.34468	6.06929
3444.41611	6.12718
3442.48755	6.18760
3440.55898	6.22662
3438.63042	6.25806
3436.70186	6.30360
3434.77329	6.35699
3432.84473	6.40708
3430.91616	6.45234
3428.98760	6.49322
3427.05903	6.54122
3425.13047	6.60843
3423.20190	6.65701
3421.27334	6.66645
3419.34478	6.67785
3417.41621	6.73173
3415.48765	6.81538
3413.55908	6.87733
3411.63052	6.89766
3409.70195	6.90456
3407.77339	6.95399
3405.84482	7.04494
3403.91626	7.12231
3401.98770	7.14460
3400.05913	7.14453
3398.13057	7.18625
3396.20200	7.25836
3394.27344	7.29576
3392.34487	7.28409
3390.41631	7.30892
3388.48774	7.38234
3386.55918	7.42794
3384.63062	7.42349
3382.70205	7.41816
3380.77349	7.44664
3378.84492	7.50601
3376.91636	7.56800
3374.98779	7.59752
3373.05923	7.62698
3371.13066	7.66764
3369.20210	7.69636
3367.27354	7.69696
3365.34497	7.71889
3363.41641	7.79039
3361.48784	7.82297
3359.55928	7.79420
3357.63071	7.78084
3355.70215	7.79725
3353.77358	7.78210
3351.84502	7.76552
3349.91646	7.77790
3347.98789	7.82814
3346.05933	7.88103
3344.13076	7.87057
3342.20220	7.87542
3340.27363	7.90824
3338.34507	7.89586
3336.41650	7.89499
3334.48794	7.97388
3332.55937	7.99528
3330.63081	7.94113
3328.70225	7.98321
3326.77368	8.11379
3324.84512	8.16796
3322.91655	8.08316
3320.98799	8.03429
3319.05942	8.07515
3317.13086	8.07997
3315.20229	8.00984
3313.27373	7.95231
3311.34517	7.93580
3309.41660	7.91601
3307.48804	7.89493
3305.55947	7.92196
3303.63091	7.97557
3301.70234	7.92623
3299.77378	7.80716
3297.84521	7.75207
3295.91665	7.79489
3293.98809	7.89533
3292.05952	7.98309
3290.13096	8.02341
3288.20239	8.02894
3286.27383	8.04264
3284.34526	8.07279
3282.41670	8.06123
3280.48813	8.04562
3278.55957	8.10955
3276.63101	8.12586
3274.70244	8.06501
3272.77388	8.05192
3270.84531	8.03186
3268.91675	7.95607
3266.98818	7.90787
3265.05962	7.95058
3263.13105	7.99072
3261.20249	7.95224
3259.27393	7.93595
3257.34536	8.00772
3255.41680	8.07040
3253.48823	8.03469
3251.55967	7.98242
3249.63110	8.01271
3247.70254	8.08876
3245.77397	8.10474
3243.84541	8.10516
3241.91685	8.09544
3239.98828	8.02335
3238.05972	7.96858
3236.13115	7.94658
3234.20259	7.94131
3232.27402	7.98586
3230.34546	8.02445
3228.41689	7.99584
3226.48833	7.95653
3224.55977	7.91257
3222.63120	7.85962
3220.70264	7.86498
3218.77407	7.91176
3216.84551	7.88928
3214.91694	7.79617
3212.98838	7.72679
3211.05981	7.71076
3209.13125	7.73764
3207.20269	7.78182
3205.27412	7.80179
3203.34556	7.81308
3201.41699	7.84536
3199.48843	7.84930
3197.55986	7.80702
3195.63130	7.77594
3193.70273	7.72894
3191.77417	7.61487
3189.84561	7.50258
3187.91704	7.44913
3185.98848	7.40176
3184.05991	7.31786
3182.13135	7.25644
3180.20278	7.25082
3178.27422	7.24177
3176.34565	7.19779
3174.41709	7.13200
3172.48853	7.04508
3170.55996	6.95313
3168.63140	6.88173
3166.70283	6.83629
3164.77427	6.79228
3162.84570	6.73154
3160.91714	6.66861
3158.98857	6.62870
3157.06001	6.60933
3155.13145	6.56262
3153.20288	6.47036
3151.27432	6.37060
3149.34575	6.29202
3147.41719	6.23261
3145.48862	6.17478
3143.56006	6.12141
3141.63149	6.07256
3139.70293	6.00392
3137.77437	5.92161
3135.84580	5.85101
3133.91724	5.79140
3131.98867	5.73044
3130.06011	5.67037
3128.13154	5.61515
3126.20298	5.55447
3124.27441	5.48059
3122.34585	5.40186
3120.41729	5.32507
3118.48872	5.24702
3116.56016	5.17056
3114.63159	5.09735
3112.70303	5.02465
3110.77446	4.95528
3108.84590	4.89179
3106.91733	4.83175
3104.98877	4.77362
3103.06021	4.71570
3101.13164	4.65165
3099.20308	4.58313
3097.27451	4.51809
3095.34595	4.45559
3093.41738	4.39078
3091.48882	4.32471
3089.56025	4.25984
3087.63169	4.19624
3085.70312	4.13434
3083.77456	4.07329
3081.84600	4.01285
3079.91743	3.95278
3077.98887	3.89271
3076.06030	3.83489
3074.13174	3.78008
3072.20317	3.72402
3070.27461	3.66488
3068.34604	3.60800
3066.41748	3.55474
3064.48892	3.50095
3062.56035	3.44630
3060.63179	3.39238
3058.70322	3.33828
3056.77466	3.28458
3054.84609	3.23275
3052.91753	3.18047
3050.98896	3.12755
3049.06040	3.07666
3047.13184	3.02666
3045.20327	2.97669
3043.27471	2.92815
3041.34614	2.88072
3039.41758	2.83400
3037.48901	2.78791
3035.56045	2.74260
3033.63188	2.69845
3031.70332	2.65444
3029.77476	2.61002
3027.84619	2.56567
3025.91763	2.52189
3023.98906	2.47903
3022.06050	2.43688
3020.13193	2.39491
3018.20337	2.35331
3016.27480	2.31300
3014.34624	2.27381
3012.41768	2.23473
3010.48911	2.19608
3008.56055	2.15893
3006.63198	2.12303
3004.70342	2.08768
3002.77485	2.05271
3000.84629	2.01814
2998.91772	1.98409
2996.98916	1.95096
2995.06060	1.91904
2993.13203	1.88790
2991.20347	1.85749
2989.27490	1.82750
2987.34634	1.79748
2985.41777	1.76804
2983.48921	1.73984
2981.56064	1.71278
2979.63208	1.68613
2977.70352	1.65947
2975.77495	1.63312
2973.84639	1.60742
2971.91782	1.58235
2969.98926	1.55756
2968.06069	1.53299
2966.13213	1.50907
2964.20356	1.48556
2962.27500	1.46160
2960.34644	1.43721
2958.41787	1.41322
2956.48931	1.38968
2954.56074	1.36612
2952.63218	1.34253
2950.70361	1.31922
2948.77505	1.29630
2946.84648	1.27403
2944.91792	1.25240
2942.98936	1.23091
2941.06079	1.20979
2939.13223	1.18976
2937.20366	1.17025
2935.27510	1.15009
2933.34653	1.12934
2931.41797	1.10858
2929.48940	1.08829
2927.56084	1.06895
2925.63228	1.05003
2923.70371	1.03116
2921.77515	1.01282
2919.84658	0.99499
2917.91802	0.97763
2915.98945	0.96105
2914.06089	0.94506
2912.13232	0.92913
2910.20376	0.91306
2908.27520	0.89735
2906.34663	0.88251
2904.41807	0.86824
2902.48950	0.85421
2900.56094	0.84038
2898.63237	0.82679
2896.70381	0.81344
2894.77524	0.80023
2892.84668	0.78735
2890.91812	0.77514
2888.98955	0.76355
2887.06099	0.75231
2885.13242	0.74153
2883.20386	0.73122
2881.27529	0.72114
2879.34673	0.71129
2877.41816	0.70137
2875.48960	0.69099
2873.56104	0.68038
2871.63247	0.66990
2869.70391	0.65906
2867.77534	0.64738
2865.84678	0.63538
2863.91821	0.62351
2861.98965	0.61175
2860.06108	0.60039
2858.13252	0.58952
2856.20396	0.57899
2854.27539	0.56892
2852.34683	0.55938
2850.41826	0.55049
2848.48970	0.54220
2846.56113	0.53426
2844.63257	0.52682
2842.70400	0.52004
2840.77544	0.51342
2838.84687	0.50677
2836.91831	0.50032
2834.98975	0.49410
2833.06118	0.48798
2831.13262	0.48178
2829.20405	0.47540
2827.27549	0.46915
2825.34692	0.46310
2823.41836	0.45696
2821.48979	0.45077
2819.56123	0.44468
2817.63267	0.43871
2815.70410	0.43282
2813.77554	0.42706
2811.84697	0.42149
2809.91841	0.41595
2807.98984	0.41021
2806.06128	0.40446
2804.13271	0.39899
2802.20415	0.39374
2800.27559	0.38863
2798.34702	0.38368
2796.41846	0.37876
2794.48989	0.37385
2792.56133	0.36910
2790.63276	0.36447
2788.70420	0.35985
2786.77563	0.35526
2784.84707	0.35072
2782.91851	0.34624
2780.98994	0.34195
2779.06138	0.33779
2777.13281	0.33365
2775.20425	0.32973
2773.27568	0.32604
2771.34712	0.32223
2769.41855	0.31825
2767.48999	0.31431
2765.56143	0.31060
2763.63286	0.30723
2761.70430	0.30408
2759.77573	0.30080
2757.84717	0.29730
2755.91860	0.29379
2753.99004	0.29050
2752.06147	0.28747
2750.13291	0.28448
2748.20435	0.28141
2746.27578	0.27836
2744.34722	0.27538
2742.41865	0.27245
2740.49009	0.26957
2738.56152	0.26680
2736.63296	0.26417
2734.70439	0.26163
2732.77583	0.25915
2730.84727	0.25678
2728.91870	0.25436
2726.99014	0.25189
2725.06157	0.24963
2723.13301	0.24748
2721.20444	0.24517
2719.27588	0.24273
2717.34731	0.24044
2715.41875	0.23840
2713.49019	0.23652
2711.56162	0.23476
2709.63306	0.23307
2707.70449	0.23141
2705.77593	0.22973
2703.84736	0.22803
2701.91880	0.22639
2699.99023	0.22478
2698.06167	0.22322
2696.13311	0.22174
2694.20454	0.22026
2692.27598	0.21867
2690.34741	0.21704
2688.41885	0.21557
2686.49028	0.21425
2684.56172	0.21304
2682.63315	0.21194
2680.70459	0.21080
2678.77603	0.20956
2676.84746	0.20835
2674.91890	0.20725
2672.99033	0.20615
2671.06177	0.20505
2669.13320	0.20401
2667.20464	0.20289
2665.27607	0.20167
2663.34751	0.20059
2661.41895	0.19962
2659.49038	0.19866
2657.56182	0.19785
2655.63325	0.19712
2653.70469	0.19623
2651.77612	0.19530
2649.84756	0.19461
2647.91899	0.19412
2645.99043	0.19354
2644.06187	0.19280
2642.13330	0.19207
2640.20474	0.19146
2638.27617	0.19090
2636.34761	0.19031
2634.41904	0.18968
2632.49048	0.18908
2630.56191	0.18858
2628.63335	0.18821
2626.70479	0.18779
2624.77622	0.18730
2622.84766	0.18691
2620.91909	0.18666
2618.99053	0.18642
2617.06196	0.18615
2615.13340	0.18588
2613.20483	0.18555
2611.27627	0.18517
2609.34771	0.18492
2607.41914	0.18480
2605.49058	0.18466
2603.56201	0.18452
2601.63345	0.18444
2599.70488	0.18441
2597.77632	0.18439
2595.84775	0.18426
2593.91919	0.18418
2591.99062	0.18433
2590.06206	0.18451
2588.13350	0.18455
2586.20493	0.18458
2584.27637	0.18468
2582.34780	0.18484
2580.41924	0.18502
2578.49067	0.18527
2576.56211	0.18553
2574.63354	0.18565
2572.70498	0.18571
2570.77642	0.18599
2568.84785	0.18645
2566.91929	0.18693
2564.99072	0.18740
2563.06216	0.18771
2561.13359	0.18777
2559.20503	0.18790
2557.27646	0.18833
2555.34790	0.18893
2553.41934	0.18944
2551.49077	0.18976
2549.56221	0.19012
2547.63364	0.19072
2545.70508	0.19133
2543.77651	0.19181
2541.84795	0.19223
2539.91938	0.19270
2537.99082	0.19322
2536.06226	0.19377
2534.13369	0.19443
2532.20513	0.19520
2530.27656	0.19597
2528.34800	0.19668
2526.41943	0.19725
2524.49087	0.19774
2522.56230	0.19834
2520.63374	0.19904
2518.70518	0.19980
2516.77661	0.20061
2514.84805	0.20136
2512.91948	0.20202
2510.99092	0.20269
2509.06235	0.20340
2507.13379	0.20412
2505.20522	0.20487
2503.27666	0.20562
2501.34810	0.20638
2499.41953	0.20728
2497.49097	0.20821
2495.56240	0.20890
2493.63384	0.20947
2491.70527	0.21016
2489.77671	0.21100
2487.84814	0.21196
2485.91958	0.21294
2483.99102	0.21384
2482.06245	0.21469
2480.13389	0.21550
2478.20532	0.21623
2476.27676	0.21694
2474.34819	0.21781
2472.41963	0.21876
2470.49106	0.21961
2468.56250	0.22037
2466.63394	0.22111
2464.70537	0.22189
2462.77681	0.22276
2460.84824	0.22365
2458.91968	0.22447
2456.99111	0.22522
2455.06255	0.22606
2453.13398	0.22709
2451.20542	0.22814
2449.27686	0.22917
2447.34829	0.23020
2445.41973	0.23119
2443.49116	0.23212
2441.56260	0.23298
2439.63403	0.23390
2437.70547	0.23485
2435.77690	0.23575
2433.84834	0.23675
2431.91978	0.23783
2429.99121	0.23886
2428.06265	0.23991
2426.13408	0.24092
2424.20552	0.24182
2422.27695	0.24279
2420.34839	0.24387
2418.41982	0.24495
2416.49126	0.24604
2414.56270	0.24715
2412.63413	0.24828
2410.70557	0.24938
2408.77700	0.25045
2406.84844	0.25158
2404.91987	0.25281
2402.99131	0.25409
2401.06274	0.25531
2399.13418	0.25640
2397.20562	0.25747
2395.27705	0.25865
2393.34849	0.25987
2391.41992	0.26112
2389.49136	0.26243
2387.56279	0.26378
2385.63423	0.26500
2383.70566	0.26616
2381.77710	0.26749
2379.84854	0.26889
2377.91997	0.27024
2375.99141	0.27152
2374.06284	0.27269
2372.13428	0.27410
2370.20571	0.27627
2368.27715	0.27834
2366.34858	0.27898
2364.42002	0.27879
2362.49146	0.27999
2360.56289	0.28296
2358.63433	0.28637
2356.70576	0.28961
2354.77720	0.29176
2352.84863	0.29243
2350.92007	0.29246
2348.99150	0.29261
2347.06294	0.29320
2345.13437	0.29482
2343.20581	0.29719
2341.27725	0.29903
2339.34868	0.30059
2337.42012	0.30184
2335.49155	0.30258
2333.56299	0.30351
2331.63442	0.30544
2329.70586	0.30820
2327.77729	0.31049
2325.84873	0.31191
2323.92017	0.31347
2321.99160	0.31550
2320.06304	0.31752
2318.13447	0.31905
2316.20591	0.32010
2314.27734	0.32137
2312.34878	0.32311
2310.42021	0.32490
2308.49165	0.32664
2306.56309	0.32838
2304.63452	0.33001
2302.70596	0.33154
2300.77739	0.33310
2298.84883	0.33477
2296.92026	0.33661
2294.99170	0.33852
2293.06313	0.34039
2291.13457	0.34225
2289.20601	0.34417
2287.27744	0.34610
2285.34888	0.34795
2283.42031	0.34973
2281.49175	0.35156
2279.56318	0.35353
2277.63462	0.35565
2275.70605	0.35774
2273.77749	0.35965
2271.84893	0.36155
2269.92036	0.36356
2267.99180	0.36561
2266.06323	0.36774
2264.13467	0.36997
2262.20610	0.37222
2260.27754	0.37437
2258.34897	0.37642
2256.42041	0.37852
2254.49185	0.38068
2252.56328	0.38272
2250.63472	0.38478
2248.70615	0.38709
2246.77759	0.38942
2244.84902	0.39153
2242.92046	0.39355
2240.99189	0.39570
2239.06333	0.39795
2237.13477	0.40018
2235.20620	0.40243
2233.27764	0.40471
2231.34907	0.40693
2229.42051	0.40908
2227.49194	0.41116
2225.56338	0.41315
2223.63481	0.41529
2221.70625	0.41761
2219.77769	0.41987
2217.84912	0.42205
2215.92056	0.42417
2213.99199	0.42619
2212.06343	0.42822
2210.13486	0.43038
2208.20630	0.43254
2206.27773	0.43457
2204.34917	0.43655
2202.42061	0.43862
2200.49204	0.44075
2198.56348	0.44279
2196.63491	0.44470
2194.70635	0.44661
2192.77778	0.44851
2190.84922	0.45030
2188.92065	0.45207
2186.99209	0.45392
2185.06353	0.45579
2183.13496	0.45759
2181.20640	0.45924
2179.27783	0.46076
2177.34927	0.46230
2175.42070	0.46390
2173.49214	0.46539
2171.56357	0.46680
2169.63501	0.46822
2167.70645	0.46954
2165.77788	0.47068
2163.84932	0.47172
2161.92075	0.47271
2159.99219	0.47378
2158.06362	0.47492
2156.13506	0.47593
2154.20649	0.47669
2152.27793	0.47734
2150.34937	0.47796
2148.42080	0.47862
2146.49224	0.47929
2144.56367	0.47976
2142.63511	0.48011
2140.70654	0.48050
2138.77798	0.48085
2136.84941	0.48093
2134.92085	0.48073
2132.99229	0.48053
2131.06372	0.48047
2129.13516	0.48042
2127.20659	0.48021
2125.27803	0.47977
2123.34946	0.47921
2121.42090	0.47872
2119.49233	0.47817
2117.56377	0.47738
2115.63521	0.47648
2113.70664	0.47563
2111.77808	0.47478
2109.84951	0.47382
2107.92095	0.47270
2105.99238	0.47140
2104.06382	0.47005
2102.13525	0.46873
2100.20669	0.46739
2098.27812	0.46590
2096.34956	0.46435
2094.42100	0.46281
2092.49243	0.46122
2090.56387	0.45953
2088.63530	0.45775
2086.70674	0.45595
2084.77817	0.45405
2082.84961	0.45204
2080.92104	0.44991
2078.99248	0.44773
2077.06392	0.44561
2075.13535	0.44351
2073.20679	0.44133
2071.27822	0.43900
2069.34966	0.43662
2067.42109	0.43425
2065.49253	0.43195
2063.56396	0.42965
2061.63540	0.42722
2059.70684	0.42465
2057.77827	0.42197
2055.84971	0.41926
2053.92114	0.41664
2051.99258	0.41411
2050.06401	0.41147
2048.13545	0.40875
2046.20688	0.40607
2044.27832	0.40338
2042.34976	0.40061
2040.42119	0.39778
2038.49263	0.39497
2036.56406	0.39227
2034.63550	0.38956
2032.70693	0.38669
2030.77837	0.38376
2028.84980	0.38083
2026.92124	0.37791
2024.99268	0.37506
2023.06411	0.37225
2021.13555	0.36946
2019.20698	0.36681
2017.27842	0.36417
2015.34985	0.36129
2013.42129	0.35828
2011.49272	0.35534
2009.56416	0.35250
2007.63560	0.34975
2005.70703	0.34707
2003.77847	0.34445
2001.84990	0.34183
1999.92134	0.33910
1997.99277	0.33637
1996.06421	0.33381
1994.13564	0.33152
1992.20708	0.32928
1990.27852	0.32668
1988.34995	0.32387
1986.42139	0.32118
1984.49282	0.31864
1982.56426	0.31619
1980.63569	0.31384
1978.70713	0.31161
1976.77856	0.30939
1974.85000	0.30714
1972.92144	0.30486
1970.99287	0.30264
1969.06431	0.30067
1967.13574	0.29881
1965.20718	0.29675
1963.27861	0.29457
1961.35005	0.29245
1959.42148	0.29049
1957.49292	0.28866
1955.56436	0.28683
1953.63579	0.28501
1951.70723	0.28322
1949.77866	0.28145
1947.85010	0.27982
1945.92153	0.27843
1943.99297	0.27718
1942.06440	0.27574
1940.13584	0.27395
1938.20728	0.27221
1936.27871	0.27078
1934.35015	0.26941
1932.42158	0.26801
1930.49302	0.26668
1928.56445	0.26554
1926.63589	0.26451
1924.70732	0.26373
1922.77876	0.26310
1920.85020	0.26222
1918.92163	0.26121
1916.99307	0.26016
1915.06450	0.25895
1913.13594	0.25785
1911.20737	0.25715
1909.27881	0.25660
1907.35024	0.25585
1905.42168	0.25498
1903.49312	0.25429
1901.56455	0.25378
1899.63599	0.25333
1897.70742	0.25299
1895.77886	0.25274
1893.85029	0.25236
1891.92173	0.25191
1889.99316	0.25185
1888.06460	0.25172
1886.13604	0.25119
1884.20747	0.25066
1882.27891	0.25028
1880.35034	0.25002
1878.42178	0.24987
1876.49321	0.24982
1874.56465	0.24978
1872.63608	0.24994
1870.70752	0.25059
1868.77896	0.25162
1866.85039	0.25189
1864.92183	0.25128
1862.99326	0.25086
1861.06470	0.25094
1859.13613	0.25133
1857.20757	0.25166
1855.27900	0.25198
1853.35044	0.25236
1851.42187	0.25288
1849.49331	0.25363
1847.56475	0.25462
1845.63618	0.25579
1843.70762	0.25690
1841.77905	0.25726
1839.85049	0.25725
1837.92192	0.25779
1835.99336	0.25865
1834.06479	0.25955
1832.13623	0.26076
1830.20767	0.26257
1828.27910	0.26415
1826.35054	0.26506
1824.42197	0.26620
1822.49341	0.26725
1820.56484	0.26817
1818.63628	0.26936
1816.70771	0.27090
1814.77915	0.27247
1812.85059	0.27435
1810.92202	0.27671
1808.99346	0.27879
1807.06489	0.28040
1805.13633	0.28206
1803.20776	0.28434
1801.27920	0.28711
1799.35063	0.28995
1797.42207	0.29233
1795.49351	0.29469
1793.56494	0.29776
1791.63638	0.30168
1789.70781	0.30484
1787.77925	0.30688
1785.85068	0.30968
1783.92212	0.31338
1781.99355	0.31746
1780.06499	0.32169
1778.13643	0.32590
1776.20786	0.32997
1774.27930	0.33458
1772.35073	0.34084
1770.42217	0.34708
1768.49360	0.35183
1766.56504	0.35651
1764.63647	0.36165
1762.70791	0.36763
1760.77935	0.37512
1758.85078	0.38193
1756.92222	0.38878
1754.99365	0.39636
1753.06509	0.40338
1751.13652	0.41200
1749.20796	0.42294
1747.27939	0.43334
1745.35083	0.44218
1743.42227	0.45156
1741.49370	0.46193
1739.56514	0.47403
1737.63657	0.48622
1735.70801	0.49727
1733.77944	0.51410
1731.85088	0.53368
1729.92231	0.54861
1727.99375	0.56367
1726.06519	0.58014
1724.13662	0.59857
1722.20806	0.61866
1720.27949	0.63738
1718.35093	0.65965
1716.42236	0.69218
1714.49380	0.72216
1712.56523	0.74598
1710.63667	0.76953
1708.70811	0.79536
1706.77954	0.82494
1704.85098	0.86034
1702.92241	0.89215
1700.99385	0.92380
1699.06528	0.97090
1697.13672	1.01423
1695.20815	1.05862
1693.27959	1.10227
1691.35103	1.13789
1689.42246	1.17944
1687.49390	1.22358
1685.56533	1.26655
1683.63677	1.33347
1681.70820	1.40249
1679.77964	1.44504
1677.85107	1.48575
1675.92251	1.53394
1673.99395	1.59436
1672.06538	1.64847
1670.13682	1.70168
1668.20825	1.77001
1666.27969	1.82534
1664.35112	1.87441
1662.42256	1.93772
1660.49399	2.00940
1658.56543	2.06471
1656.63687	2.10983
1654.70830	2.15248
1652.77974	2.21621
1650.85117	2.27141
1648.92261	2.28735
1646.99404	2.30772
1645.06548	2.32807
1643.13691	2.34384
1641.20835	2.35428
1639.27979	2.36398
1637.35122	2.36906
1635.42266	2.36621
1633.49409	2.35541
1631.56553	2.33845
1629.63696	2.31804
1627.70840	2.28675
1625.77983	2.25340
1623.85127	2.21213
1621.92271	2.15963
1619.99414	2.11206
1618.06558	2.06600
1616.13701	1.99981
1614.20845	1.93242
1612.27988	1.88244
1610.35132	1.83153
1608.42275	1.77642
1606.49419	1.72130
1604.56562	1.67008
1602.63706	1.62135
1600.70850	1.57474
1598.77993	1.53162
1596.85137	1.49070
1594.92280	1.45108
1592.99424	1.41308
1591.06567	1.37868
1589.13711	1.34676
1587.20854	1.31732
1585.27998	1.29038
1583.35142	1.26539
1581.42285	1.24281
1579.49429	1.22390
1577.56572	1.20756
1575.63716	1.18847
1573.70859	1.17177
1571.78003	1.16131
1569.85146	1.15162
1567.92290	1.14121
1565.99434	1.13364
1564.06577	1.12884
1562.13721	1.12604
1560.20864	1.12637
1558.28008	1.13176
1556.35151	1.13595
1554.42295	1.13782
1552.49438	1.14052
1550.56582	1.14158
1548.63726	1.13955
1546.70869	1.13483
1544.78013	1.12676
1542.85156	1.11474
1540.92300	1.09593
1538.99443	1.06495
1537.06587	1.04161
1535.13730	1.02613
1533.20874	1.00565
1531.28018	0.98331
1529.35161	0.96681
1527.42305	0.95140
1525.49448	0.93557
1523.56592	0.92243
1521.63735	0.91056
1519.70879	0.89870
1517.78022	0.88815
1515.85166	0.87532
1513.92310	0.86186
1511.99453	0.85040
1510.06597	0.84027
1508.13740	0.83043
1506.20884	0.81413
1504.28027	0.79914
1502.35171	0.79099
1500.42314	0.78439
1498.49458	0.77732
1496.56602	0.76859
1494.63745	0.75981
1492.70889	0.75345
1490.78032	0.74844
1488.85176	0.74266
1486.92319	0.73658
1484.99463	0.73154
1483.06606	0.72788
1481.13750	0.72522
1479.20894	0.72338
1477.28037	0.72271
1475.35181	0.72327
1473.42324	0.72418
1471.49468	0.72362
1469.56611	0.72158
1467.63755	0.71964
1465.70898	0.71827
1463.78042	0.71719
1461.85186	0.71646
1459.92329	0.71651
1457.99473	0.71744
1456.06616	0.71767
1454.13760	0.71525
1452.20903	0.71211
1450.28047	0.70907
1448.35190	0.70610
1446.42334	0.70289
1444.49478	0.69963
1442.56621	0.69655
1440.63765	0.69359
1438.70908	0.69080
1436.78052	0.68729
1434.85195	0.68290
1432.92339	0.67950
1430.99482	0.67752
1429.06626	0.67663
1427.13770	0.67660
1425.20913	0.67735
1423.28057	0.67853
1421.35200	0.67948
1419.42344	0.68043
1417.49487	0.68083
1415.56631	0.67980
1413.63774	0.67876
1411.70918	0.67861
1409.78062	0.67929
1407.85205	0.68051
1405.92349	0.68226
1403.99492	0.68397
1402.06636	0.68455
1400.13779	0.68401
1398.20923	0.68244
1396.28066	0.67965
1394.35210	0.67543
1392.42354	0.67061
1390.49497	0.66626
1388.56641	0.66192
1386.63784	0.65676
1384.70928	0.65115
1382.78071	0.64587
1380.85215	0.64110
1378.92358	0.63708
1376.99502	0.63399
1375.06646	0.63184
1373.13789	0.63014
1371.20933	0.62881
1369.28076	0.62800
1367.35220	0.62711
1365.42363	0.62589
1363.49507	0.62463
1361.56650	0.62301
1359.63794	0.62102
1357.70937	0.61927
1355.78081	0.61783
1353.85225	0.61652
1351.92368	0.61542
1349.99512	0.61464
1348.06655	0.61390
1346.13799	0.61299
1344.20942	0.61209
1342.28086	0.61152
1340.35229	0.61137
1338.42373	0.61093
1336.49517	0.60990
1334.56660	0.60894
1332.63804	0.60858
1330.70947	0.60885
1328.78091	0.60947
1326.85234	0.61020
1324.92378	0.61103
1322.99521	0.61203
1321.06665	0.61309
1319.13809	0.61398
1317.20952	0.61457
1315.28096	0.61475
1313.35239	0.61446
1311.42383	0.61392
1309.49526	0.61333
1307.56670	0.61262
1305.63813	0.61183
1303.70957	0.61105
1301.78101	0.61012
1299.85244	0.60894
1297.92388	0.60767
1295.99531	0.60633
1294.06675	0.60497
1292.13818	0.60365
1290.20962	0.60226
1288.28105	0.60075
1286.35249	0.59926
1284.42393	0.59783
1282.49536	0.59637
1280.56680	0.59485
1278.63823	0.59327
1276.70967	0.59172
1274.78110	0.59041
1272.85254	0.58954
1270.92397	0.58896
1268.99541	0.58823
1267.06685	0.58725
1265.13828	0.58620
1263.20972	0.58520
1261.28115	0.58437
1259.35259	0.58378
1257.42402	0.58322
1255.49546	0.58271
1253.56689	0.58253
1251.63833	0.58265
1249.70977	0.58272
1247.78120	0.58263
1245.85264	0.58242
1243.92407	0.58193
1241.99551	0.58096
1240.06694	0.57961
1238.13838	0.57788
1236.20981	0.57567
1234.28125	0.57312
1232.35269	0.57045
1230.42412	0.56789
1228.49556	0.56562
1226.56699	0.56353
1224.63843	0.56145
1222.70986	0.55941
1220.78130	0.55748
1218.85273	0.55575
1216.92417	0.55428
1214.99561	0.55299
1213.06704	0.55183
1211.13848	0.55093
1209.20991	0.55022
1207.28135	0.54954
1205.35278	0.54872
1203.42422	0.54770
1201.49565	0.54663
1199.56709	0.54558
1197.63853	0.54457
1195.70996	0.54372
1193.78140	0.54299
1191.85283	0.54234
1189.92427	0.54182
1187.99570	0.54140
1186.06714	0.54108
1184.13857	0.54111
1182.21001	0.54159
1180.28145	0.54250
1178.35288	0.54384
1176.42432	0.54545
1174.49575	0.54694
1172.56719	0.54801
1170.63862	0.54850
1168.71006	0.54863
1166.78149	0.54879
1164.85293	0.54898
1162.92437	0.54900
1160.99580	0.54882
1159.06724	0.54854
1157.13867	0.54819
1155.21011	0.54750
1153.28154	0.54610
1151.35298	0.54412
1149.42441	0.54176
1147.49585	0.53906
1145.56729	0.53613
1143.63872	0.53329
1141.71016	0.53086
1139.78159	0.52883
1137.85303	0.52716
1135.92446	0.52616
1133.99590	0.52593
1132.06733	0.52602
1130.13877	0.52595
1128.21021	0.52574
1126.28164	0.52551
1124.35308	0.52521
1122.42451	0.52483
1120.49595	0.52456
1118.56738	0.52441
1116.63882	0.52423
1114.71025	0.52423
1112.78169	0.52468
1110.85312	0.52539
1108.92456	0.52618
1106.99600	0.52697
1105.06743	0.52771
1103.13887	0.52855
1101.21030	0.52967
1099.28174	0.53117
1097.35317	0.53326
1095.42461	0.53598
1093.49604	0.53950
1091.56748	0.54416
1089.63892	0.54979
1087.71035	0.55607
1085.78179	0.56310
1083.85322	0.57065
1081.92466	0.57762
1079.99609	0.58286
1078.06753	0.58565
1076.13896	0.58579
1074.21040	0.58339
1072.28184	0.57861
1070.35327	0.57224
1068.42471	0.56538
1066.49614	0.55859
1064.56758	0.55212
1062.63901	0.54636
1060.71045	0.54164
1058.78188	0.53776
1056.85332	0.53408
1054.92476	0.53045
1052.99619	0.52699
1051.06763	0.52387
1049.13906	0.52153
1047.21050	0.52019
1045.28193	0.51950
1043.35337	0.51894
1041.42480	0.51832
1039.49624	0.51769
1037.56768	0.51711
1035.63911	0.51654
1033.71055	0.51591
1031.78198	0.51506
1029.85342	0.51389
1027.92485	0.51255
1025.99629	0.51130
1024.06772	0.51040
1022.13916	0.50994
1020.21060	0.50985
1018.28203	0.51008
1016.35347	0.51049
1014.42490	0.51077
1012.49634	0.51083
1010.56777	0.51077
1008.63921	0.51079
1006.71064	0.51136
1004.78208	0.51278
1002.85352	0.51491
1000.92495	0.51750
998.99639	0.52064
997.06782	0.52438
995.13926	0.52844
993.21069	0.53240
991.28213	0.53581
989.35356	0.53818
987.42500	0.53920
985.49644	0.53925
983.56787	0.53913
981.63931	0.53926
979.71074	0.53983
977.78218	0.54108
975.85361	0.54301
973.92505	0.54539
971.99648	0.54807
970.06792	0.55121
968.13936	0.55490
966.21079	0.55897
964.28223	0.56352
962.35366	0.56835
960.42510	0.57307
958.49653	0.57792
956.56797	0.58329
954.63940	0.58911
952.71084	0.59516
950.78228	0.60156
948.85371	0.60826
946.92515	0.61462
944.99658	0.62033
943.06802	0.62599
941.13945	0.63195
939.21089	0.63788
937.28232	0.64362
935.35376	0.64941
933.42520	0.65518
931.49663	0.66089
929.56807	0.66663
927.63950	0.67228
925.71094	0.67788
923.78237	0.68355
921.85381	0.68967
919.92524	0.69661
917.99668	0.70392
916.06812	0.71092
914.13955	0.71786
912.21099	0.72533
910.28242	0.73345
908.35386	0.74201
906.42529	0.75094
904.49673	0.76062
902.56816	0.77056
900.63960	0.77935
898.71104	0.78771
896.78247	0.79745
894.85391	0.80788
892.92534	0.81774
890.99678	0.82804
889.06821	0.83972
887.13965	0.85218
885.21108	0.86377
883.28252	0.87399
881.35396	0.88421
879.42539	0.89428
877.49683	0.90379
875.56826	0.91461
873.63970	0.92719
871.71113	0.93981
869.78257	0.95199
867.85400	0.96369
865.92544	0.97429
863.99687	0.98400
862.06831	0.99372
860.13975	1.00499
858.21118	1.01793
856.28262	1.03067
854.35405	1.04290
852.42549	1.05436
850.49692	1.06372
848.56836	1.07266
846.63979	1.08493
844.71123	1.10043
842.78267	1.11487
840.85410	1.12527
838.92554	1.13215
836.99697	1.13858
835.06841	1.14818
833.13984	1.16192
831.21128	1.17760
829.28271	1.19274
827.35415	1.20412
825.42559	1.20911
823.49702	1.21363
821.56846	1.22529
819.63989	1.23925
817.71133	1.24622
815.78276	1.25043
813.85420	1.25817
811.92563	1.26797
809.99707	1.27756
808.06851	1.28571
806.13994	1.29599
804.21138	1.30803
802.28281	1.32272
800.35425	1.33059
798.42568	1.31201
796.49712	1.28964
794.56855	1.28928
792.63999	1.30346
790.71143	1.31815
788.78286	1.31398
786.85430	1.30713
784.92573	1.35143
782.99717	1.42100
781.06860	1.43309
779.14004	1.39620
777.21147	1.34489
775.28291	1.32296
773.35435	1.31834
771.42578	1.26367
769.49722	1.19568
767.56865	1.17119
765.64009	1.17512
763.71152	1.15652
761.78296	1.09987
759.85439	1.06971
757.92583	1.09497
755.99727	1.08007
754.06870	1.00719
752.14014	0.99957
750.21157	1.09134
748.28301	1.21005
746.35444	1.21868
744.42588	1.15571
742.49731	1.18363
740.56875	1.31838
738.64019	1.17006
736.71162	0.91599
734.78306	0.83216
732.85449	0.83438
730.92593	0.73139
728.99736	0.58020
727.06880	0.43644
725.14023	0.33191
723.21167	0.32471
721.28311	0.34421
719.35454	0.20466
717.42598	-0.03226
715.49741	-0.16986
713.56885	-0.25255
711.64028	-0.15848
709.71172	0.00214
707.78315	0.00751
705.85459	-0.08508
703.92603	-0.16068
701.99746	-0.14410
700.06890	-0.00444
698.14033	0.17442
696.21177	0.23467
694.28320	0.22658
692.35464	0.25255
690.42607	0.28799
688.49751	0.26434
686.56895	0.18412
684.64038	0.19235
682.71182	0.35467
680.78325	0.51652
678.85469	0.50536
676.92612	0.41527
674.99756	0.38268
673.06899	0.39995
671.14043	0.41147
669.21187	0.40414
667.28330	0.40186
665.35474	0.42163
663.42617	0.36005
661.49761	0.20904
659.56904	0.12376
657.64048	0.14722
655.71191	0.20684
653.78335	0.21432
651.85479	0.17010
649.92622	0.12469
647.99766	0.13452
646.06909	0.21758
644.14053	0.31670
642.21196	0.41020
640.28340	0.43783
638.35483	0.32848
636.42627	0.21487
634.49771	0.18098
632.56914	0.19552
630.64058	0.17817
628.71201	0.19099
626.78345	0.27381
624.85488	0.34109
622.92632	0.35381
620.99775	0.33436
619.06919	0.26720
617.14062	0.25787
615.21206	0.31466
613.28350	0.34255
611.35493	0.34198
609.42637	0.30237
607.49780	0.22310
605.56924	0.17810
603.64067	0.16526
601.71211	0.15201
599.78354	0.16674
597.85498	0.25262
595.92642	0.37873
593.99785	0.39780
592.06929	0.33759
590.14072	0.34071
588.21216	0.34877
586.28359	0.27789
584.35503	0.19266
582.42646	0.18539
580.49790	0.25304
578.56934	0.29890
576.64077	0.31826
574.71221	0.31108
572.78364	0.25827
570.85508	0.27222
568.92651	0.38565
566.99795	0.38414
565.06938	0.28926
563.14082	0.23097
561.21226	0.19588
559.28369	0.19565
557.35513	0.20882
555.42656	0.17855
553.49800	0.14362
551.56943	0.14337
549.64087	0.13828
547.71230	0.16592
545.78374	0.29979
543.85518	0.47957
541.92661	0.48673
539.99805	0.42497
538.06948	0.36123
536.14092	0.25296
534.21235	0.18461
532.28379	0.16211
530.35522	0.15650
528.42666	0.18142
526.49810	0.25155
524.56953	0.31618
522.64097	0.28787
520.71240	0.22798
518.78384	0.22203
516.85527	0.27244
514.92671	0.32364
512.99814	0.29233
511.06958	0.25357
509.14102	0.28403
507.21245	0.37372
505.28389	0.42501
503.35532	0.30929
501.42676	0.21452
499.49819	0.18188
