3997.91411	0.10047
3995.98555	0.10073
3994.05698	0.10119
3992.12842	0.10165
3990.19985	0.10185
3988.27129	0.10182
3986.34272	0.10216
3984.41416	0.10300
3982.48560	0.10357
3980.55703	0.10382
3978.62847	0.10410
3976.69990	0.10422
3974.77134	0.10419
3972.84277	0.10410
3970.91421	0.10406
3968.98564	0.10418
3967.05708	0.10417
3965.12852	0.10402
3963.19995	0.10441
3961.27139	0.10509
3959.34282	0.10524
3957.41426	0.10518
3955.48569	0.10531
3953.55713	0.10527
3951.62856	0.10512
3949.70000	0.10531
3947.77144	0.10558
3945.84287	0.10544
3943.91431	0.10551
3941.98574	0.10583
3940.05718	0.10545
3938.12861	0.10483
3936.20005	0.10467
3934.27148	0.10487
3932.34292	0.10535
3930.41436	0.10580
3928.48579	0.10557
3926.55723	0.10500
3924.62866	0.10487
3922.70010	0.10513
3920.77153	0.10522
3918.84297	0.10506
3916.91440	0.10479
3914.98584	0.10436
3913.05728	0.10383
3911.12871	0.10346
3909.20015	0.10349
3907.27158	0.10411
3905.34302	0.10558
3903.41445	0.10742
3901.48589	0.10814
3899.55732	0.10775
3897.62876	0.10678
3895.70020	0.10522
3893.77163	0.10435
3891.84307	0.10502
3889.91450	0.10550
3887.98594	0.10475
3886.05737	0.10497
3884.12881	0.10618
3882.20024	0.10629
3880.27168	0.10588
3878.34312	0.10558
3876.41455	0.10512
3874.48599	0.10548
3872.55742	0.10691
3870.62886	0.10854
3868.70029	0.10953
3866.77173	0.10904
3864.84316	0.10878
3862.91460	0.10946
3860.98604	0.10923
3859.05747	0.10859
3857.12891	0.10903
3855.20034	0.11073
3853.27178	0.11377
3851.34321	0.11541
3849.41465	0.11317
3847.48608	0.11047
3845.55752	0.10923
3843.62896	0.10996
3841.70039	0.11212
3839.77183	0.11470
3837.84326	0.11695
3835.91470	0.11771
3833.98613	0.11705
3832.05757	0.11631
3830.12900	0.11594
3828.20044	0.11600
3826.27187	0.11678
3824.34331	0.11784
3822.41475	0.11939
3820.48618	0.12246
3818.55762	0.12434
3816.62905	0.12418
3814.70049	0.12401
3812.77192	0.12328
3810.84336	0.12260
3808.91479	0.12300
3806.98623	0.12452
3805.05767	0.12652
3803.12910	0.12864
3801.20054	0.13179
3799.27197	0.13393
3797.34341	0.13335
3795.41484	0.13254
3793.48628	0.13220
3791.55771	0.13251
3789.62915	0.13384
3787.70059	0.13565
3785.77202	0.13763
3783.84346	0.13960
3781.91489	0.14091
3779.98633	0.14241
3778.05776	0.14454
3776.12920	0.14551
3774.20063	0.14603
3772.27207	0.14785
3770.34351	0.15074
3768.41494	0.15326
3766.48638	0.15481
3764.55781	0.15649
3762.62925	0.15815
3760.70068	0.15993
3758.77212	0.16285
3756.84355	0.16617
3754.91499	0.16872
3752.98643	0.17166
3751.05786	0.17638
3749.12930	0.18130
3747.20073	0.18323
3745.27217	0.18478
3743.34360	0.18869
3741.41504	0.19232
3739.48647	0.19437
3737.55791	0.19754
3735.62935	0.20395
3733.70078	0.21182
3731.77222	0.21581
3729.84365	0.21723
3727.91509	0.21978
3725.98652	0.22528
3724.05796	0.23278
3722.12939	0.23981
3720.20083	0.24636
3718.27227	0.25272
3716.34370	0.25900
3714.41514	0.26586
3712.48657	0.27553
3710.55801	0.29005
3708.62944	0.30457
3706.70088	0.31519
3704.77231	0.32530
3702.84375	0.33813
3700.91519	0.35547
3698.98662	0.37388
3697.05806	0.39064
3695.12949	0.40849
3693.20093	0.42786
3691.27236	0.44958
3689.34380	0.47859
3687.41523	0.51376
3685.48667	0.54328
3683.55811	0.56828
3681.62954	0.59574
3679.70098	0.62748
3677.77241	0.66115
3675.84385	0.70121
3673.91528	0.75489
3671.98672	0.79773
3670.05815	0.83580
3668.12959	0.88838
3666.20103	0.93569
3664.27246	0.97538
3662.34390	1.01861
3660.41533	1.06531
3658.48677	1.11119
3656.55820	1.16038
3654.62964	1.21567
3652.70107	1.26218
3650.77251	1.30291
3648.84395	1.35952
3646.91538	1.42839
3644.98682	1.47822
3643.05825	1.51627
3641.12969	1.55556
3639.20112	1.59935
3637.27256	1.64346
3635.34399	1.68664
3633.41543	1.73038
3631.48687	1.77121
3629.55830	1.81242
3627.62974	1.86704
3625.70117	1.91783
3623.77261	1.95163
3621.84404	1.98410
3619.91548	2.02217
3617.98691	2.06903
3616.05835	2.11387
3614.12979	2.15132
3612.20122	2.19128
3610.27266	2.23100
3608.34409	2.26973
3606.41553	2.31133
3604.48696	2.35136
3602.55840	2.38782
3600.62983	2.42664
3598.70127	2.46779
3596.77271	2.50673
3594.84414	2.54576
3592.91558	2.58748
3590.98701	2.62807
3589.05845	2.66609
3587.12988	2.71033
3585.20132	2.75782
3583.27275	2.79824
3581.34419	2.83602
3579.41562	2.87691
3577.48706	2.92149
3575.55850	2.96722
3573.62993	3.01257
3571.70137	3.05442
3569.77280	3.09266
3567.84424	3.13280
3565.91567	3.18260
3563.98711	3.23247
3562.05854	3.27562
3560.12998	3.31965
3558.20142	3.36541
3556.27285	3.41115
3554.34429	3.45582
3552.41572	3.50204
3550.48716	3.54916
3548.55859	3.59523
3546.63003	3.64348
3544.70146	3.69288
3542.77290	3.73776
3540.84434	3.78184
3538.91577	3.82910
3536.98721	3.87655
3535.05864	3.92509
3533.13008	3.97428
3531.20151	4.02222
3529.27295	4.06875
3527.34438	4.11573
3525.41582	4.16326
3523.48726	4.21112
3521.55869	4.26194
3519.63013	4.31369
3517.70156	4.36454
3515.77300	4.41358
3513.84443	4.46016
3511.91587	4.50654
3509.98730	4.55747
3508.05874	4.61241
3506.13018	4.66409
3504.20161	4.70837
3502.27305	4.74837
3500.34448	4.79153
3498.41592	4.83637
3496.48735	4.88242
3494.55879	4.93566
3492.63022	4.99044
3490.70166	5.04050
3488.77310	5.09174
3486.84453	5.14560
3484.91597	5.19520
3482.98740	5.24006
3481.05884	5.28765
3479.13027	5.33421
3477.20171	5.37936
3475.27314	5.43863
3473.34458	5.50509
3471.41602	5.55186
3469.48745	5.57932
3467.55889	5.60958
3465.63032	5.64917
3463.70176	5.69448
3461.77319	5.74999
3459.84463	5.81795
3457.91606	5.88420
3455.98750	5.93476
3454.05894	5.97414
3452.13037	6.01940
3450.20181	6.07061
3448.27324	6.11888
3446.34468	6.16000
3444.41611	6.18135
3442.48755	6.20441
3440.55898	6.24790
3438.63042	6.30808
3436.70186	6.37940
3434.77329	6.44254
3432.84473	6.49819
3430.91616	6.55453
3428.98760	6.60556
3427.05903	6.64966
3425.13047	6.68394
3423.20190	6.70813
3421.27334	6.75328
3419.34478	6.82354
3417.41621	6.88431
3415.48765	6.92405
3413.55908	6.97299
3411.63052	7.05952
3409.70195	7.12757
3407.77339	7.14172
3405.84482	7.15935
3403.91626	7.21253
3401.98770	7.25241
3400.05913	7.26246
3398.13057	7.28606
3396.20200	7.35036
3394.27344	7.43837
3392.34487	7.49827
3390.41631	7.53722
3388.48774	7.55445
3386.55918	7.57615
3384.63062	7.63209
3382.70205	7.66436
3380.77349	7.65374
3378.84492	7.64683
3376.91636	7.65547
3374.98779	7.68333
3373.05923	7.76702
3371.13066	7.83153
3369.20210	7.83651
3367.27354	7.85265
3365.34497	7.88906
3363.41641	7.95220
3361.48784	8.01562
3359.55928	7.99163
3357.63071	7.94194
3355.70215	7.99990
3353.77358	8.10127
3351.84502	8.13098
3349.91646	8.09809
3347.98789	8.05293
3346.05933	7.98250
3344.13076	7.91229
3342.20220	7.94699
3340.27363	8.08609
3338.34507	8.22031
3336.41650	8.27695
3334.48794	8.20953
3332.55937	8.00989
3330.63081	7.90755
3328.70225	8.00041
3326.77368	8.12465
3324.84512	8.14907
3322.91655	8.11029
3320.98799	8.05923
3319.05942	7.99809
3317.13086	8.01087
3315.20229	8.14881
3313.27373	8.28016
3311.34517	8.16449
3309.41660	7.95559
3307.48804	7.91920
3305.55947	7.99203
3303.63091	8.06271
3301.70234	8.12366
3299.77378	8.19391
3297.84521	8.24408
3295.91665	8.23475
3293.98809	8.20749
3292.05952	8.19939
3290.13096	8.17677
3288.20239	8.17887
3286.27383	8.25452
3284.34526	8.29405
3282.41670	8.23575
3280.48813	8.10213
3278.55957	8.00192
3276.63101	8.03563
3274.70244	8.10388
3272.77388	8.11610
3270.84531	8.19296
3268.91675	8.27236
3266.98818	8.20644
3265.05962	8.15679
3263.13105	8.14272
3261.20249	8.11315
3259.27393	8.14722
3257.34536	8.22676
3255.41680	8.23280
3253.48823	8.19247
3251.55967	8.25721
3249.63110	8.36756
3247.70254	8.39350
3245.77397	8.38726
3243.84541	8.38243
3241.91685	8.32503
3239.98828	8.26992
3238.05972	8.25654
3236.13115	8.21727
3234.20259	8.19936
3232.27402	8.18944
3230.34546	8.10824
3228.41689	8.02889
3226.48833	8.00701
3224.55977	8.06691
3222.63120	8.14522
3220.70264	8.10843
3218.77407	8.06550
3216.84551	8.12080
3214.91694	8.15560
3212.98838	8.11943
3211.05981	8.11285
3209.13125	8.10759
3207.20269	8.04066
3205.27412	7.94387
3203.34556	7.82210
3201.41699	7.73133
3199.48843	7.70493
3197.55986	7.69882
3195.63130	7.70141
3193.70273	7.73406
3191.77417	7.77192
3189.84561	7.73530
3187.91704	7.59813
3185.98848	7.42878
3184.05991	7.33130
3182.13135	7.33075
3180.20278	7.32316
3178.27422	7.25220
3176.34565	7.20282
3174.41709	7.19716
3172.48853	7.15014
3170.55996	7.05614
3168.63140	6.99561
3166.70283	6.96430
3164.77427	6.92798
3162.84570	6.90992
3160.91714	6.87791
3158.98857	6.79053
3157.06001	6.69322
3155.13145	6.63118
3153.20288	6.59167
3151.27432	6.55035
3149.34575	6.50172
3147.41719	6.43427
3145.48862	6.35168
3143.56006	6.26726
3141.63149	6.19398
3139.70293	6.13474
3137.77437	6.06085
3135.84580	5.97267
3133.91724	5.89944
3131.98867	5.83383
3130.06011	5.76142
3128.13154	5.68664
3126.20298	5.61056
3124.27441	5.53754
3122.34585	5.47241
3120.41729	5.41031
3118.48872	5.34916
3116.56016	5.28925
3114.63159	5.22532
3112.70303	5.15553
3110.77446	5.08070
3108.84590	5.00549
3106.91733	4.93653
3104.98877	4.86864
3103.06021	4.79640
3101.13164	4.72359
3099.20308	4.65345
3097.27451	4.58481
3095.34595	4.51697
3093.41738	4.45192
3091.48882	4.39010
3089.56025	4.32926
3087.63169	4.26765
3085.70312	4.20441
3083.77456	4.14026
3081.84600	4.07879
3079.91743	4.01930
3077.98887	3.95843
3076.06030	3.89818
3074.13174	3.84072
3072.20317	3.78378
3070.27461	3.72540
3068.34604	3.66689
3066.41748	3.60898
3064.48892	3.55137
3062.56035	3.49501
3060.63179	3.44098
3058.70322	3.38780
3056.77466	3.33338
3054.84609	3.27835
3052.91753	3.22538
3050.98896	3.17566
3049.06040	3.12559
3047.13184	3.07191
3045.20327	3.01710
3043.27471	2.96543
3041.34614	2.91801
3039.41758	2.87234
3037.48901	2.82615
3035.56045	2.77964
3033.63188	2.73326
3031.70332	2.68649
3029.77476	2.64062
3027.84619	2.59731
3025.91763	2.55495
3023.98906	2.51159
3022.06050	2.46801
3020.13193	2.42526
3018.20337	2.38341
3016.27480	2.34251
3014.34624	2.30259
3012.41768	2.26403
3010.48911	2.22642
3008.56055	2.18833
3006.63198	2.15054
3004.70342	2.11464
3002.77485	2.07966
3000.84629	2.04443
2998.91772	2.00949
2996.98916	1.97572
2995.06060	1.94304
2993.13203	1.91071
2991.20347	1.87895
2989.27490	1.84846
2987.34634	1.81896
2985.41777	1.79008
2983.48921	1.76160
2981.56064	1.73316
2979.63208	1.70513
2977.70352	1.67809
2975.77495	1.65147
2973.84639	1.62495
2971.91782	1.59915
2969.98926	1.57403
2968.06069	1.54930
2966.13213	1.52513
2964.20356	1.50128
2962.27500	1.47711
2960.34644	1.45278
2958.41787	1.42886
2956.48931	1.40498
2954.56074	1.38075
2952.63218	1.35694
2950.70361	1.33380
2948.77505	1.31086
2946.84648	1.28829
2944.91792	1.26632
2942.98936	1.24486
2941.06079	1.22411
2939.13223	1.20408
2937.20366	1.18448
2935.27510	1.16495
2933.34653	1.14548
2931.41797	1.12615
2929.48940	1.10708
2927.56084	1.08854
2925.63228	1.07026
2923.70371	1.05176
2921.77515	1.03286
2919.84658	1.01392
2917.91802	0.99569
2915.98945	0.97857
2914.06089	0.96186
2912.13232	0.94475
2910.20376	0.92780
2908.27520	0.91171
2906.34663	0.89628
2904.41807	0.88119
2902.48950	0.86645
2900.56094	0.85223
2898.63237	0.83851
2896.70381	0.82517
2894.77524	0.81201
2892.84668	0.79903
2890.91812	0.78664
2888.98955	0.77484
2887.06099	0.76322
2885.13242	0.75183
2883.20386	0.74113
2881.27529	0.73118
2879.34673	0.72128
2877.41816	0.71111
2875.48960	0.70103
2873.56104	0.69094
2871.63247	0.68036
2869.70391	0.66919
2867.77534	0.65737
2865.84678	0.64502
2863.91821	0.63281
2861.98965	0.62130
2860.06108	0.61038
2858.13252	0.59996
2856.20396	0.59020
2854.27539	0.58095
2852.34683	0.57189
2850.41826	0.56277
2848.48970	0.55341
2846.56113	0.54401
2844.63257	0.53513
2842.70400	0.52736
2840.77544	0.52062
2838.84687	0.51414
2836.91831	0.50744
2834.98975	0.50070
2833.06118	0.49424
2831.13262	0.48800
2829.20405	0.48161
2827.27549	0.47505
2825.34692	0.46866
2823.41836	0.46239
2821.48979	0.45611
2819.56123	0.44985
2817.63267	0.44376
2815.70410	0.43789
2813.77554	0.43205
2811.84697	0.42624
2809.91841	0.42059
2807.98984	0.41505
2806.06128	0.40957
2804.13271	0.40413
2802.20415	0.39860
2800.27559	0.39306
2798.34702	0.38782
2796.41846	0.38290
2794.48989	0.37800
2792.56133	0.37302
2790.63276	0.36814
2788.70420	0.36339
2786.77563	0.35874
2784.84707	0.35438
2782.91851	0.35026
2780.98994	0.34607
2779.06138	0.34175
2777.13281	0.33747
2775.20425	0.33336
2773.27568	0.32931
2771.34712	0.32527
2769.41855	0.32135
2767.48999	0.31752
2765.56143	0.31371
2763.63286	0.31010
2761.70430	0.30678
2759.77573	0.30343
2757.84717	0.29987
2755.91860	0.29647
2753.99004	0.29347
2752.06147	0.29054
2750.13291	0.28731
2748.20435	0.28397
2746.27578	0.28086
2744.34722	0.27801
2742.41865	0.27523
2740.49009	0.27245
2738.56152	0.26974
2736.63296	0.26710
2734.70439	0.26447
2732.77583	0.26179
2730.84727	0.25916
2728.91870	0.25676
2726.99014	0.25459
2725.06157	0.25242
2723.13301	0.25008
2721.20444	0.24770
2719.27588	0.24547
2717.34731	0.24331
2715.41875	0.24115
2713.49019	0.23908
2711.56162	0.23716
2709.63306	0.23538
2707.70449	0.23373
2705.77593	0.23203
2703.84736	0.23015
2701.91880	0.22835
2699.99023	0.22682
2698.06167	0.22523
2696.13311	0.22347
2694.20454	0.22182
2692.27598	0.22038
2690.34741	0.21902
2688.41885	0.21765
2686.49028	0.21629
2684.56172	0.21502
2682.63315	0.21380
2680.70459	0.21256
2678.77603	0.21138
2676.84746	0.21024
2674.91890	0.20897
2672.99033	0.20746
2671.06177	0.20605
2669.13320	0.20493
2667.20464	0.20397
2665.27607	0.20302
2663.34751	0.20194
2661.41895	0.20078
2659.49038	0.19988
2657.56182	0.19911
2655.63325	0.19813
2653.70469	0.19724
2651.77612	0.19666
2649.84756	0.19607
2647.91899	0.19532
2645.99043	0.19448
2644.06187	0.19360
2642.13330	0.19279
2640.20474	0.19217
2638.27617	0.19180
2636.34761	0.19146
2634.41904	0.19100
2632.49048	0.19047
2630.56191	0.18990
2628.63335	0.18930
2626.70479	0.18877
2624.77622	0.18829
2622.84766	0.18787
2620.91909	0.18761
2618.99053	0.18732
2617.06196	0.18690
2615.13340	0.18657
2613.20483	0.18637
2611.27627	0.18618
2609.34771	0.18597
2607.41914	0.18569
2605.49058	0.18540
2603.56201	0.18518
2601.63345	0.18514
2599.70488	0.18528
2597.77632	0.18551
2595.84775	0.18558
2593.91919	0.18542
2591.99062	0.18534
2590.06206	0.18548
2588.13350	0.18566
2586.20493	0.18579
2584.27637	0.18592
2582.34780	0.18607
2580.41924	0.18624
2578.49067	0.18631
2576.56211	0.18628
2574.63354	0.18638
2572.70498	0.18676
2570.77642	0.18725
2568.84785	0.18783
2566.91929	0.18842
2564.99072	0.18880
2563.06216	0.18908
2561.13359	0.18946
2559.20503	0.18991
2557.27646	0.19022
2555.34790	0.19040
2553.41934	0.19072
2551.49077	0.19114
2549.56221	0.19154
2547.63364	0.19200
2545.70508	0.19264
2543.77651	0.19338
2541.84795	0.19399
2539.91938	0.19444
2537.99082	0.19493
2536.06226	0.19563
2534.13369	0.19647
2532.20513	0.19716
2530.27656	0.19771
2528.34800	0.19838
2526.41943	0.19913
2524.49087	0.19975
2522.56230	0.20028
2520.63374	0.20095
2518.70518	0.20185
2516.77661	0.20271
2514.84805	0.20338
2512.91948	0.20405
2510.99092	0.20482
2509.06235	0.20559
2507.13379	0.20631
2505.20522	0.20701
2503.27666	0.20780
2501.34810	0.20869
2499.41953	0.20951
2497.49097	0.21027
2495.56240	0.21109
2493.63384	0.21192
2491.70527	0.21272
2489.77671	0.21354
2487.84814	0.21436
2485.91958	0.21513
2483.99102	0.21587
2482.06245	0.21669
2480.13389	0.21756
2478.20532	0.21839
2476.27676	0.21924
2474.34819	0.22013
2472.41963	0.22096
2470.49106	0.22174
2468.56250	0.22255
2466.63394	0.22335
2464.70537	0.22420
2462.77681	0.22521
2460.84824	0.22625
2458.91968	0.22718
2456.99111	0.22803
2455.06255	0.22882
2453.13398	0.22963
2451.20542	0.23056
2449.27686	0.23164
2447.34829	0.23274
2445.41973	0.23370
2443.49116	0.23458
2441.56260	0.23550
2439.63403	0.23645
2437.70547	0.23737
2435.77690	0.23829
2433.84834	0.23932
2431.91978	0.24043
2429.99121	0.24152
2428.06265	0.24254
2426.13408	0.24360
2424.20552	0.24466
2422.27695	0.24573
2420.34839	0.24687
2418.41982	0.24807
2416.49126	0.24918
2414.56270	0.25011
2412.63413	0.25100
2410.70557	0.25205
2408.77700	0.25332
2406.84844	0.25458
2404.91987	0.25570
2402.99131	0.25682
2401.06274	0.25802
2399.13418	0.25925
2397.20562	0.26045
2395.27705	0.26160
2393.34849	0.26279
2391.41992	0.26407
2389.49136	0.26539
2387.56279	0.26680
2385.63423	0.26839
2383.70566	0.27018
2381.77710	0.27228
2379.84854	0.27490
2377.91997	0.27793
2375.99141	0.28082
2374.06284	0.28358
2372.13428	0.28696
2370.20571	0.29122
2368.27715	0.29518
2366.34858	0.29812
2364.42002	0.30168
2362.49146	0.30614
2360.56289	0.30919
2358.63433	0.31030
2356.70576	0.31075
2354.77720	0.31083
2352.84863	0.30988
2350.92007	0.30809
2348.99150	0.30683
2347.06294	0.30704
2345.13437	0.30947
2343.20581	0.31384
2341.27725	0.31764
2339.34868	0.31928
2337.42012	0.31970
2335.49155	0.32052
2333.56299	0.32197
2331.63442	0.32382
2329.70586	0.32574
2327.77729	0.32731
2325.84873	0.32824
2323.92017	0.32876
2321.99160	0.32929
2320.06304	0.32973
2318.13447	0.33006
2316.20591	0.33065
2314.27734	0.33176
2312.34878	0.33329
2310.42021	0.33481
2308.49165	0.33597
2306.56309	0.33685
2304.63452	0.33765
2302.70596	0.33861
2300.77739	0.34000
2298.84883	0.34168
2296.92026	0.34332
2294.99170	0.34487
2293.06313	0.34655
2291.13457	0.34826
2289.20601	0.34983
2287.27744	0.35147
2285.34888	0.35332
2283.42031	0.35520
2281.49175	0.35698
2279.56318	0.35884
2277.63462	0.36089
2275.70605	0.36305
2273.77749	0.36519
2271.84893	0.36724
2269.92036	0.36921
2267.99180	0.37113
2266.06323	0.37311
2264.13467	0.37532
2262.20610	0.37765
2260.27754	0.37982
2258.34897	0.38179
2256.42041	0.38379
2254.49185	0.38592
2252.56328	0.38816
2250.63472	0.39040
2248.70615	0.39263
2246.77759	0.39490
2244.84902	0.39706
2242.92046	0.39916
2240.99189	0.40145
2239.06333	0.40377
2237.13477	0.40588
2235.20620	0.40798
2233.27764	0.41017
2231.34907	0.41238
2229.42051	0.41465
2227.49194	0.41699
2225.56338	0.41922
2223.63481	0.42132
2221.70625	0.42348
2219.77769	0.42569
2217.84912	0.42789
2215.92056	0.43011
2213.99199	0.43232
2212.06343	0.43442
2210.13486	0.43650
2208.20630	0.43865
2206.27773	0.44080
2204.34917	0.44283
2202.42061	0.44479
2200.49204	0.44677
2198.56348	0.44884
2196.63491	0.45097
2194.70635	0.45305
2192.77778	0.45498
2190.84922	0.45689
2188.92065	0.45882
2186.99209	0.46075
2185.06353	0.46258
2183.13496	0.46415
2181.20640	0.46564
2179.27783	0.46725
2177.34927	0.46889
2175.42070	0.47045
2173.49214	0.47190
2171.56357	0.47334
2169.63501	0.47480
2167.70645	0.47616
2165.77788	0.47742
2163.84932	0.47858
2161.92075	0.47967
2159.99219	0.48081
2158.06362	0.48185
2156.13506	0.48266
2154.20649	0.48341
2152.27793	0.48426
2150.34937	0.48506
2148.42080	0.48566
2146.49224	0.48617
2144.56367	0.48663
2142.63511	0.48695
2140.70654	0.48721
2138.77798	0.48750
2136.84941	0.48764
2134.92085	0.48762
2132.99229	0.48758
2131.06372	0.48743
2129.13516	0.48714
2127.20659	0.48688
2125.27803	0.48664
2123.34946	0.48621
2121.42090	0.48559
2119.49233	0.48487
2117.56377	0.48412
2115.63521	0.48338
2113.70664	0.48265
2111.77808	0.48183
2109.84951	0.48075
2107.92095	0.47949
2105.99238	0.47820
2104.06382	0.47690
2102.13525	0.47549
2100.20669	0.47402
2098.27812	0.47258
2096.34956	0.47121
2094.42100	0.46972
2092.49243	0.46801
2090.56387	0.46620
2088.63530	0.46439
2086.70674	0.46264
2084.77817	0.46079
2082.84961	0.45868
2080.92104	0.45640
2078.99248	0.45420
2077.06392	0.45214
2075.13535	0.44999
2073.20679	0.44767
2071.27822	0.44529
2069.34966	0.44287
2067.42109	0.44043
2065.49253	0.43809
2063.56396	0.43574
2061.63540	0.43328
2059.70684	0.43065
2057.77827	0.42785
2055.84971	0.42508
2053.92114	0.42236
2051.99258	0.41963
2050.06401	0.41698
2048.13545	0.41447
2046.20688	0.41183
2044.27832	0.40906
2042.34976	0.40628
2040.42119	0.40342
2038.49263	0.40048
2036.56406	0.39766
2034.63550	0.39489
2032.70693	0.39198
2030.77837	0.38910
2028.84980	0.38632
2026.92124	0.38348
2024.99268	0.38046
2023.06411	0.37743
2021.13555	0.37458
2019.20698	0.37188
2017.27842	0.36919
2015.34985	0.36636
2013.42129	0.36342
2011.49272	0.36052
2009.56416	0.35766
2007.63560	0.35474
2005.70703	0.35184
2003.77847	0.34912
2001.84990	0.34655
1999.92134	0.34396
1997.99277	0.34129
1996.06421	0.33865
1994.13564	0.33619
1992.20708	0.33379
1990.27852	0.33114
1988.34995	0.32836
1986.42139	0.32569
1984.49282	0.32319
1982.56426	0.32086
1980.63569	0.31856
1978.70713	0.31613
1976.77856	0.31369
1974.85000	0.31142
1972.92144	0.30924
1970.99287	0.30703
1969.06431	0.30498
1967.13574	0.30308
1965.20718	0.30099
1963.27861	0.29876
1961.35005	0.29667
1959.42148	0.29472
1957.49292	0.29280
1955.56436	0.29096
1953.63579	0.28927
1951.70723	0.28759
1949.77866	0.28584
1947.85010	0.28412
1945.92153	0.28256
1943.99297	0.28121
1942.06440	0.27990
1940.13584	0.27828
1938.20728	0.27653
1936.27871	0.27496
1934.35015	0.27357
1932.42158	0.27234
1930.49302	0.27115
1928.56445	0.26995
1926.63589	0.26881
1924.70732	0.26793
1922.77876	0.26720
1920.85020	0.26625
1918.92163	0.26521
1916.99307	0.26421
1915.06450	0.26306
1913.13594	0.26203
1911.20737	0.26142
1909.27881	0.26094
1907.35024	0.26023
1905.42168	0.25934
1903.49312	0.25857
1901.56455	0.25795
1899.63599	0.25740
1897.70742	0.25700
1895.77886	0.25670
1893.85029	0.25637
1891.92173	0.25602
1889.99316	0.25589
1888.06460	0.25568
1886.13604	0.25525
1884.20747	0.25487
1882.27891	0.25456
1880.35034	0.25434
1878.42178	0.25430
1876.49321	0.25434
1874.56465	0.25432
1872.63608	0.25449
1870.70752	0.25504
1868.77896	0.25589
1866.85039	0.25613
1864.92183	0.25569
1862.99326	0.25544
1861.06470	0.25555
1859.13613	0.25590
1857.20757	0.25627
1855.27900	0.25664
1853.35044	0.25702
1851.42187	0.25753
1849.49331	0.25822
1847.56475	0.25912
1845.63618	0.26026
1843.70762	0.26141
1841.77905	0.26193
1839.85049	0.26207
1837.92192	0.26270
1835.99336	0.26361
1834.06479	0.26449
1832.13623	0.26559
1830.20767	0.26741
1828.27910	0.26914
1826.35054	0.27010
1824.42197	0.27125
1822.49341	0.27237
1820.56484	0.27339
1818.63628	0.27471
1816.70771	0.27636
1814.77915	0.27804
1812.85059	0.27987
1810.92202	0.28209
1808.99346	0.28427
1807.06489	0.28611
1805.13633	0.28786
1803.20776	0.29010
1801.27920	0.29287
1799.35063	0.29589
1797.42207	0.29849
1795.49351	0.30090
1793.56494	0.30391
1791.63638	0.30785
1789.70781	0.31113
1787.77925	0.31329
1785.85068	0.31622
1783.92212	0.32005
1781.99355	0.32415
1780.06499	0.32836
1778.13643	0.33264
1776.20786	0.33676
1774.27930	0.34134
1772.35073	0.34758
1770.42217	0.35413
1768.49360	0.35929
1766.56504	0.36415
1764.63647	0.36921
1762.70791	0.37508
1760.77935	0.38280
1758.85078	0.39006
1756.92222	0.39733
1754.99365	0.40531
1753.06509	0.41261
1751.13652	0.42152
1749.20796	0.43280
1747.27939	0.44340
1745.35083	0.45242
1743.42227	0.46191
1741.49370	0.47233
1739.56514	0.48461
1737.63657	0.49699
1735.70801	0.50800
1733.77944	0.52488
1731.85088	0.54473
1729.92231	0.55990
1727.99375	0.57526
1726.06519	0.59197
1724.13662	0.61055
1722.20806	0.63071
1720.27949	0.64941
1718.35093	0.67168
1716.42236	0.70465
1714.49380	0.73537
1712.56523	0.75980
1710.63667	0.78366
1708.70811	0.80950
1706.77954	0.83917
1704.85098	0.87497
1702.92241	0.90701
1700.99385	0.93856
1699.06528	0.98581
1697.13672	1.02968
1695.20815	1.07452
1693.27959	1.11826
1691.35103	1.15372
1689.42246	1.19504
1687.49390	1.23885
1685.56533	1.28123
1683.63677	1.34720
1681.70820	1.41573
1679.77964	1.45857
1677.85107	1.49942
1675.92251	1.54682
1673.99395	1.60625
1672.06538	1.66018
1670.13682	1.71359
1668.20825	1.78250
1666.27969	1.83781
1664.35112	1.88507
1662.42256	1.94472
1660.49399	2.01234
1658.56543	2.06544
1656.63687	2.11052
1654.70830	2.15211
1652.77974	2.21078
1650.85117	2.26583
1648.92261	2.28632
1646.99404	2.31285
1645.06548	2.33785
1643.13691	2.35382
1641.20835	2.36306
1639.27979	2.37094
1637.35122	2.37412
1635.42266	2.37046
1633.49409	2.35997
1631.56553	2.34453
1629.63696	2.32729
1627.70840	2.29993
1625.77983	2.26863
1623.85127	2.22553
1621.92271	2.16995
1619.99414	2.12181
1618.06558	2.07721
1616.13701	2.01391
1614.20845	1.94876
1612.27988	1.89872
1610.35132	1.84627
1608.42275	1.78995
1606.49419	1.73481
1604.56562	1.68439
1602.63706	1.63626
1600.70850	1.58952
1598.77993	1.54617
1596.85137	1.50467
1594.92280	1.46419
1592.99424	1.42591
1591.06567	1.39139
1589.13711	1.35891
1587.20854	1.32868
1585.27998	1.30103
1583.35142	1.27571
1581.42285	1.25298
1579.49429	1.23373
1577.56572	1.21656
1575.63716	1.19566
1573.70859	1.17753
1571.78003	1.16642
1569.85146	1.15571
1567.92290	1.14390
1565.99434	1.13530
1564.06577	1.12957
1562.13721	1.12588
1560.20864	1.12499
1558.28008	1.12767
1556.35151	1.13005
1554.42295	1.13090
1552.49438	1.13216
1550.56582	1.13184
1548.63726	1.12854
1546.70869	1.12289
1544.78013	1.11488
1542.85156	1.10388
1540.92300	1.08613
1538.99443	1.05600
1537.06587	1.03329
1535.13730	1.01802
1533.20874	0.99812
1531.28018	0.97707
1529.35161	0.96182
1527.42305	0.94747
1525.49448	0.93261
1523.56592	0.92022
1521.63735	0.90894
1519.70879	0.89752
1517.78022	0.88738
1515.85166	0.87502
1513.92310	0.86200
1511.99453	0.85121
1510.06597	0.84198
1508.13740	0.83284
1506.20884	0.81748
1504.28027	0.80376
1502.35171	0.79628
1500.42314	0.78999
1498.49458	0.78340
1496.56602	0.77581
1494.63745	0.76813
1492.70889	0.76214
1490.78032	0.75720
1488.85176	0.75175
1486.92319	0.74620
1484.99463	0.74155
1483.06606	0.73800
1481.13750	0.73543
1479.20894	0.73389
1477.28037	0.73354
1475.35181	0.73419
1473.42324	0.73520
1471.49468	0.73496
1469.56611	0.73316
1467.63755	0.73133
1465.70898	0.73002
1463.78042	0.72888
1461.85186	0.72793
1459.92329	0.72784
1457.99473	0.72867
1456.06616	0.72834
1454.13760	0.72557
1452.20903	0.72256
1450.28047	0.71965
1448.35190	0.71672
1446.42334	0.71353
1444.49478	0.71053
1442.56621	0.70782
1440.63765	0.70509
1438.70908	0.70232
1436.78052	0.69902
1434.85195	0.69511
1432.92339	0.69202
1430.99482	0.69011
1429.06626	0.68892
1427.13770	0.68827
1425.20913	0.68848
1423.28057	0.68933
1421.35200	0.68999
1419.42344	0.69060
1417.49487	0.69075
1415.56631	0.68959
1413.63774	0.68836
1411.70918	0.68794
1409.78062	0.68837
1407.85205	0.68937
1405.92349	0.69080
1403.99492	0.69197
1402.06636	0.69203
1400.13779	0.69138
1398.20923	0.69003
1396.28066	0.68745
1394.35210	0.68351
1392.42354	0.67890
1390.49497	0.67461
1388.56641	0.67062
1386.63784	0.66609
1384.70928	0.66097
1382.78071	0.65604
1380.85215	0.65147
1378.92358	0.64768
1376.99502	0.64508
1375.06646	0.64351
1373.13789	0.64228
1371.20933	0.64116
1369.28076	0.64037
1367.35220	0.63950
1365.42363	0.63826
1363.49507	0.63697
1361.56650	0.63541
1359.63794	0.63338
1357.70937	0.63155
1355.78081	0.63006
1353.85225	0.62873
1351.92368	0.62765
1349.99512	0.62684
1348.06655	0.62600
1346.13799	0.62493
1344.20942	0.62386
1342.28086	0.62312
1340.35229	0.62274
1338.42373	0.62215
1336.49517	0.62109
1334.56660	0.62014
1332.63804	0.61970
1330.70947	0.61969
1328.78091	0.62000
1326.85234	0.62051
1324.92378	0.62114
1322.99521	0.62191
1321.06665	0.62276
1319.13809	0.62348
1317.20952	0.62385
1315.28096	0.62378
1313.35239	0.62335
1311.42383	0.62270
1309.49526	0.62194
1307.56670	0.62111
1305.63813	0.62024
1303.70957	0.61936
1301.78101	0.61843
1299.85244	0.61736
1297.92388	0.61625
1295.99531	0.61510
1294.06675	0.61391
1292.13818	0.61277
1290.20962	0.61165
1288.28105	0.61030
1286.35249	0.60878
1284.42393	0.60743
1282.49536	0.60615
1280.56680	0.60466
1278.63823	0.60307
1276.70967	0.60168
1274.78110	0.60047
1272.85254	0.59929
1270.92397	0.59833
1268.99541	0.59758
1267.06685	0.59693
1265.13828	0.59629
1263.20972	0.59558
1261.28115	0.59480
1259.35259	0.59397
1257.42402	0.59311
1255.49546	0.59259
1253.56689	0.59259
1251.63833	0.59279
1249.70977	0.59288
1247.78120	0.59267
1245.85264	0.59208
1243.92407	0.59139
1241.99551	0.59063
1240.06694	0.58938
1238.13838	0.58754
1236.20981	0.58539
1234.28125	0.58306
1232.35269	0.58063
1230.42412	0.57823
1228.49556	0.57605
1226.56699	0.57407
1224.63843	0.57222
1222.70986	0.57040
1220.78130	0.56865
1218.85273	0.56703
1216.92417	0.56537
1214.99561	0.56377
1213.06704	0.56261
1211.13848	0.56185
1209.20991	0.56115
1207.28135	0.56044
1205.35278	0.55966
1203.42422	0.55868
1201.49565	0.55755
1199.56709	0.55650
1197.63853	0.55552
1195.70996	0.55465
1193.78140	0.55399
1191.85283	0.55340
1189.92427	0.55273
1187.99570	0.55208
1186.06714	0.55168
1184.13857	0.55176
1182.21001	0.55223
1180.28145	0.55290
1178.35288	0.55387
1176.42432	0.55525
1174.49575	0.55676
1172.56719	0.55777
1170.63862	0.55819
1168.71006	0.55858
1166.78149	0.55920
1164.85293	0.55982
1162.92437	0.56034
1160.99580	0.56083
1159.06724	0.56108
1157.13867	0.56081
1155.21011	0.56004
1153.28154	0.55888
1151.35298	0.55731
1149.42441	0.55498
1147.49585	0.55191
1145.56729	0.54870
1143.63872	0.54572
1141.71016	0.54309
1139.78159	0.54106
1137.85303	0.53976
1135.92446	0.53895
1133.99590	0.53847
1132.06733	0.53843
1130.13877	0.53868
1128.21021	0.53874
1126.28164	0.53859
1124.35308	0.53847
1122.42451	0.53846
1120.49595	0.53858
1118.56738	0.53874
1116.63882	0.53886
1114.71025	0.53926
1112.78169	0.54016
1110.85312	0.54125
1108.92456	0.54212
1106.99600	0.54294
1105.06743	0.54384
1103.13887	0.54454
1101.21030	0.54513
1099.28174	0.54604
1097.35317	0.54755
1095.42461	0.54992
1093.49604	0.55344
1091.56748	0.55842
1089.63892	0.56520
1087.71035	0.57338
1085.78179	0.58205
1083.85322	0.59057
1081.92466	0.59816
1079.99609	0.60371
1078.06753	0.60641
1076.13896	0.60607
1074.21040	0.60291
1072.28184	0.59729
1070.35327	0.59000
1068.42471	0.58231
1066.49614	0.57512
1064.56758	0.56875
1062.63901	0.56330
1060.71045	0.55852
1058.78188	0.55424
1056.85332	0.55056
1054.92476	0.54738
1052.99619	0.54451
1051.06763	0.54221
1049.13906	0.54077
1047.21050	0.54009
1045.28193	0.54009
1043.35337	0.54044
1041.42480	0.54087
1039.49624	0.54113
1037.56768	0.54102
1035.63911	0.54061
1033.71055	0.53989
1031.78198	0.53869
1029.85342	0.53675
1027.92485	0.53428
1025.99629	0.53204
1024.06772	0.53053
1022.13916	0.52957
1020.21060	0.52875
1018.28203	0.52802
1016.35347	0.52734
1014.42490	0.52661
1012.49634	0.52583
1010.56777	0.52503
1008.63921	0.52453
1006.71064	0.52479
1004.78208	0.52571
1002.85352	0.52696
1000.92495	0.52895
998.99639	0.53222
997.06782	0.53656
995.13926	0.54130
993.21069	0.54555
991.28213	0.54861
989.35356	0.55040
987.42500	0.55099
985.49644	0.55058
983.56787	0.54985
981.63931	0.54951
979.71074	0.54987
977.78218	0.55095
975.85361	0.55280
973.92505	0.55534
971.99648	0.55826
970.06792	0.56130
968.13936	0.56464
966.21079	0.56857
964.28223	0.57316
962.35366	0.57814
960.42510	0.58309
958.49653	0.58812
956.56797	0.59379
954.63940	0.60008
952.71084	0.60635
950.78228	0.61255
948.85371	0.61895
946.92515	0.62529
944.99658	0.63155
943.06802	0.63790
941.13945	0.64418
939.21089	0.65016
937.28232	0.65580
935.35376	0.66154
933.42520	0.66761
931.49663	0.67375
929.56807	0.67971
927.63950	0.68562
925.71094	0.69190
923.78237	0.69848
921.85381	0.70477
919.92524	0.71085
917.99668	0.71784
916.06812	0.72580
914.13955	0.73349
912.21099	0.74064
910.28242	0.74850
908.35386	0.75755
906.42529	0.76676
904.49673	0.77532
902.56816	0.78381
900.63960	0.79340
898.71104	0.80361
896.78247	0.81376
894.85391	0.82466
892.92534	0.83561
890.99678	0.84495
889.06821	0.85349
887.13965	0.86242
885.21108	0.87216
883.28252	0.88405
881.35396	0.89718
879.42539	0.90896
877.49683	0.92068
875.56826	0.93395
873.63970	0.94660
871.71113	0.95724
869.78257	0.96712
867.85400	0.97749
865.92544	0.98933
863.99687	1.00235
862.06831	1.01489
860.13975	1.02654
858.21118	1.03777
856.28262	1.04842
854.35405	1.05965
852.42549	1.07295
850.49692	1.08668
848.56836	1.09964
846.63979	1.11346
844.71123	1.12744
842.78267	1.13906
840.85410	1.14725
838.92554	1.15324
836.99697	1.16088
835.06841	1.17204
833.13984	1.18581
831.21128	1.20115
829.28271	1.21456
827.35415	1.22335
825.42559	1.23029
823.49702	1.23765
821.56846	1.24550
819.63989	1.26059
817.71133	1.28169
815.78276	1.29165
813.85420	1.28977
811.92563	1.29399
809.99707	1.31198
808.06851	1.32855
806.13994	1.32813
804.21138	1.32649
802.28281	1.33849
800.35425	1.35882
798.42568	1.37098
796.49712	1.35121
794.56855	1.33533
792.63999	1.37221
790.71143	1.41935
788.78286	1.41559
786.85430	1.40539
784.92573	1.40229
782.99717	1.35216
781.06860	1.30538
779.14004	1.30745
777.21147	1.29514
775.28291	1.25661
773.35435	1.26383
771.42578	1.33290
769.49722	1.42443
767.56865	1.45309
765.64009	1.36878
763.71152	1.29430
761.78296	1.30851
759.85439	1.35171
757.92583	1.28463
755.99727	1.19176
754.06870	1.15258
752.14014	1.11726
750.21157	1.16686
748.28301	1.41408
746.35444	1.49137
744.42588	1.19453
742.49731	1.00869
740.56875	0.91439
738.64019	0.91469
736.71162	0.90216
734.78306	0.72692
732.85449	0.57977
730.92593	0.52616
728.99736	0.48714
727.06880	0.42739
725.14023	0.41381
723.21167	0.47252
721.28311	0.49189
719.35454	0.33816
717.42598	0.18054
715.49741	0.14404
713.56885	0.17098
711.64028	0.10778
709.71172	0.04035
707.78315	0.20514
705.85459	0.40958
703.92603	0.45647
701.99746	0.73648
700.06890	0.43075
698.14033	0.12137
696.21177	-0.01339
694.28320	-0.02769
692.35464	0.08040
690.42607	0.20849
688.49751	0.27199
686.56895	0.33076
684.64038	0.24917
682.71182	0.13719
680.78325	0.11096
678.85469	0.10589
676.92612	0.09775
674.99756	0.12980
673.06899	0.24031
671.14043	0.45930
669.21187	0.53584
667.28330	0.29176
665.35474	0.07376
663.42617	0.01665
661.49761	0.11512
659.56904	0.24813
657.64048	0.27556
655.71191	0.17731
653.78335	0.06772
651.85479	0.00822
649.92622	0.01087
647.99766	0.14858
646.06909	0.30835
644.14053	0.29646
642.21196	0.23261
640.28340	0.19843
638.35483	0.19214
636.42627	0.16152
634.49771	0.08472
632.56914	0.00067
630.64058	-0.07165
628.71201	-0.04546
626.78345	0.07713
624.85488	0.07405
622.92632	0.00427
620.99775	0.00193
619.06919	0.08478
617.14062	0.17360
615.21206	0.21289
613.28350	0.23404
611.35493	0.19316
609.42637	0.08496
607.49780	0.01033
605.56924	-0.05622
603.64067	-0.09946
601.71211	0.01455
599.78354	0.17783
597.85498	0.20672
595.92642	0.16231
593.99785	0.15240
592.06929	0.16101
590.14072	0.17032
588.21216	0.24662
586.28359	0.34020
584.35503	0.29074
582.42646	0.25424
580.49790	0.22448
578.56934	0.18581
576.64077	0.21350
574.71221	0.25664
572.78364	0.20889
570.85508	0.10911
568.92651	0.05154
566.99795	0.06457
565.06938	0.07235
563.14082	0.06709
561.21226	0.10534
559.28369	0.17485
557.35513	0.24627
555.42656	0.29800
553.49800	0.25544
551.56943	0.21822
549.64087	0.30360
547.71230	0.38727
545.78374	0.18153
543.85518	0.04605
541.92661	0.02823
539.99805	0.07177
538.06948	0.10142
536.14092	0.11661
534.21235	0.16252
532.28379	0.22427
530.35522	0.18694
528.42666	0.15867
526.49810	0.24356
524.56953	0.26741
522.64097	0.17329
520.71240	0.13406
518.78384	0.16835
516.85527	0.14278
514.92671	0.08393
512.99814	0.12076
511.06958	0.21036
509.14102	0.29174
507.21245	0.38032
505.28389	0.35070
503.35532	0.25105
501.42676	0.19501
499.49819	0.16813
