3997.91411	0.12935
3995.98555	0.12924
3994.05698	0.12969
3992.12842	0.13029
3990.19985	0.13067
3988.27129	0.13095
3986.34272	0.13105
3984.41416	0.13136
3982.48560	0.13187
3980.55703	0.13169
3978.62847	0.13113
3976.69990	0.13139
3974.77134	0.13236
3972.84277	0.13313
3970.91421	0.13347
3968.98564	0.13358
3967.05708	0.13343
3965.12852	0.13323
3963.19995	0.13355
3961.27139	0.13412
3959.34282	0.13418
3957.41426	0.13401
3955.48569	0.13424
3953.55713	0.13458
3951.62856	0.13484
3949.70000	0.13529
3947.77144	0.13559
3945.84287	0.13541
3943.91431	0.13558
3941.98574	0.13600
3940.05718	0.13544
3938.12861	0.13435
3936.20005	0.13381
3934.27148	0.13430
3932.34292	0.13559
3930.41436	0.13651
3928.48579	0.13626
3926.55723	0.13575
3924.62866	0.13591
3922.70010	0.13599
3920.77153	0.13542
3918.84297	0.13518
3916.91440	0.13537
3914.98584	0.13457
3913.05728	0.13278
3911.12871	0.13156
3909.20015	0.13159
3907.27158	0.13295
3905.34302	0.13579
3903.41445	0.13896
3901.48589	0.14010
3899.55732	0.13912
3897.62876	0.13670
3895.70020	0.13400
3893.77163	0.13337
3891.84307	0.13505
3889.91450	0.13588
3887.98594	0.13484
3886.05737	0.13520
3884.12881	0.13688
3882.20024	0.13771
3880.27168	0.13800
3878.34312	0.13677
3876.41455	0.13507
3874.48599	0.13587
3872.55742	0.13853
3870.62886	0.14099
3868.70029	0.14165
3866.77173	0.14018
3864.84316	0.13995
3862.91460	0.14089
3860.98604	0.13976
3859.05747	0.13807
3857.12891	0.13849
3855.20034	0.14112
3853.27178	0.14550
3851.34321	0.14719
3849.41465	0.14345
3847.48608	0.14013
3845.55752	0.13953
3843.62896	0.14144
3841.70039	0.14465
3839.77183	0.14775
3837.84326	0.14988
3835.91470	0.14983
3833.98613	0.14819
3832.05757	0.14669
3830.12900	0.14595
3828.20044	0.14631
3826.27187	0.14778
3824.34331	0.14947
3822.41475	0.15179
3820.48618	0.15537
3818.55762	0.15637
3816.62905	0.15497
3814.70049	0.15337
3812.77192	0.15108
3810.84336	0.14982
3808.91479	0.15115
3806.98623	0.15489
3805.05767	0.15856
3803.12910	0.16129
3801.20054	0.16480
3799.27197	0.16628
3797.34341	0.16473
3795.41484	0.16296
3793.48628	0.16110
3791.55771	0.16020
3789.62915	0.16103
3787.70059	0.16268
3785.77202	0.16463
3783.84346	0.16635
3781.91489	0.16752
3779.98633	0.16943
3778.05776	0.17192
3776.12920	0.17268
3774.20063	0.17262
3772.27207	0.17421
3770.34351	0.17803
3768.41494	0.18204
3766.48638	0.18424
3764.55781	0.18548
3762.62925	0.18652
3760.70068	0.18886
3758.77212	0.19315
3756.84355	0.19669
3754.91499	0.19862
3752.98643	0.20229
3751.05786	0.20969
3749.12930	0.21649
3747.20073	0.21798
3745.27217	0.21895
3743.34360	0.22175
3741.41504	0.22400
3739.48647	0.22624
3737.55791	0.23079
3735.62935	0.23879
3733.70078	0.24694
3731.77222	0.24961
3729.84365	0.25021
3727.91509	0.25300
3725.98652	0.25868
3724.05796	0.26589
3722.12939	0.27286
3720.20083	0.27884
3718.27227	0.28368
3716.34370	0.28878
3714.41514	0.29575
3712.48657	0.30706
3710.55801	0.32397
3708.62944	0.33873
3706.70088	0.34756
3704.77231	0.35658
3702.84375	0.36948
3700.91519	0.38676
3698.98662	0.40439
3697.05806	0.42064
3695.12949	0.43882
3693.20093	0.45936
3691.27236	0.48286
3689.34380	0.51298
3687.41523	0.54691
3685.48667	0.57444
3683.55811	0.59842
3681.62954	0.62570
3679.70098	0.65799
3677.77241	0.69314
3675.84385	0.73531
3673.91528	0.78935
3671.98672	0.83107
3670.05815	0.86937
3668.12959	0.92213
3666.20103	0.96773
3664.27246	1.00562
3662.34390	1.04807
3660.41533	1.09512
3658.48677	1.14248
3656.55820	1.19357
3654.62964	1.24947
3652.70107	1.29589
3650.77251	1.33813
3648.84395	1.39748
3646.91538	1.46600
3644.98682	1.51309
3643.05825	1.54962
3641.12969	1.58841
3639.20112	1.63168
3637.27256	1.67555
3635.34399	1.71944
3633.41543	1.76434
3631.48687	1.80652
3629.55830	1.85011
3627.62974	1.90645
3625.70117	1.95497
3623.77261	1.98626
3621.84404	2.01902
3619.91548	2.05955
3617.98691	2.10774
3616.05835	2.15160
3614.12979	2.18763
3612.20122	2.22536
3610.27266	2.26331
3608.34409	2.30344
3606.41553	2.34690
3604.48696	2.38600
3602.55840	2.42132
3600.62983	2.46018
3598.70127	2.50176
3596.77271	2.54213
3594.84414	2.58324
3592.91558	2.62537
3590.98701	2.66437
3589.05845	2.70061
3587.12988	2.74388
3585.20132	2.79106
3583.27275	2.83151
3581.34419	2.86927
3579.41562	2.90969
3577.48706	2.95317
3575.55850	2.99769
3573.62993	3.04288
3571.70137	3.08563
3569.77280	3.12589
3567.84424	3.17057
3565.91567	3.22574
3563.98711	3.27624
3562.05854	3.31554
3560.12998	3.35576
3558.20142	3.39992
3556.27285	3.44494
3554.34429	3.48916
3552.41572	3.53678
3550.48716	3.58782
3548.55859	3.63510
3546.63003	3.67760
3544.70146	3.72425
3542.77290	3.77616
3540.84434	3.82532
3538.91577	3.87184
3536.98721	3.91864
3535.05864	3.96821
3533.13008	4.01872
3531.20151	4.06729
3529.27295	4.11472
3527.34438	4.16513
3525.41582	4.21591
3523.48726	4.26105
3521.55869	4.30435
3519.63013	4.34990
3517.70156	4.39723
3515.77300	4.44476
3513.84443	4.49474
3511.91587	4.54858
3509.98730	4.60250
3508.05874	4.65197
3506.13018	4.69662
3504.20161	4.74202
3502.27305	4.79286
3500.34448	4.84390
3498.41592	4.89132
3496.48735	4.94072
3494.55879	4.99008
3492.63022	5.03614
3490.70166	5.08447
3488.77310	5.13634
3486.84453	5.18519
3484.91597	5.22842
3482.98740	5.27591
3481.05884	5.33561
3479.13027	5.39293
3477.20171	5.43834
3475.27314	5.48559
3473.34458	5.53769
3471.41602	5.58841
3469.48745	5.63780
3467.55889	5.68526
3465.63032	5.73367
3463.70176	5.78391
3461.77319	5.82951
3459.84463	5.87679
3457.91606	5.93165
3455.98750	5.98499
3454.05894	6.02829
3452.13037	6.06641
3450.20181	6.11723
3448.27324	6.19044
3446.34468	6.26366
3444.41611	6.31433
3442.48755	6.36346
3440.55898	6.40312
3438.63042	6.42237
3436.70186	6.46287
3434.77329	6.53427
3432.84473	6.60317
3430.91616	6.66021
3428.98760	6.71151
3427.05903	6.75981
3425.13047	6.81845
3423.20190	6.87300
3421.27334	6.90986
3419.34478	6.94114
3417.41621	6.98451
3415.48765	7.04041
3413.55908	7.10463
3411.63052	7.17461
3409.70195	7.21979
3407.77339	7.24658
3405.84482	7.27010
3403.91626	7.30227
3401.98770	7.35412
3400.05913	7.42550
3398.13057	7.50091
3396.20200	7.55081
3394.27344	7.57843
3392.34487	7.59797
3390.41631	7.63758
3388.48774	7.71119
3386.55918	7.81737
3384.63062	7.88089
3382.70205	7.86631
3380.77349	7.85708
3378.84492	7.91508
3376.91636	8.02248
3374.98779	8.05118
3373.05923	8.00495
3371.13066	7.97685
3369.20210	7.99515
3367.27354	8.05410
3365.34497	8.16075
3363.41641	8.28729
3361.48784	8.33059
3359.55928	8.26073
3357.63071	8.14015
3355.70215	8.10030
3353.77358	8.16487
3351.84502	8.22329
3349.91646	8.20503
3347.98789	8.18346
3346.05933	8.20456
3344.13076	8.22559
3342.20220	8.27954
3340.27363	8.39849
3338.34507	8.47648
3336.41650	8.41630
3334.48794	8.35149
3332.55937	8.34709
3330.63081	8.35299
3328.70225	8.35629
3326.77368	8.37163
3324.84512	8.35329
3322.91655	8.29318
3320.98799	8.32626
3319.05942	8.41574
3317.13086	8.45524
3315.20229	8.44972
3313.27373	8.44727
3311.34517	8.44821
3309.41660	8.39869
3307.48804	8.38390
3305.55947	8.43569
3303.63091	8.43974
3301.70234	8.40713
3299.77378	8.42504
3297.84521	8.47506
3295.91665	8.58592
3293.98809	8.71908
3292.05952	8.70715
3290.13096	8.56533
3288.20239	8.47930
3286.27383	8.52161
3284.34526	8.56060
3282.41670	8.52383
3280.48813	8.49465
3278.55957	8.52430
3276.63101	8.56480
3274.70244	8.58923
3272.77388	8.54460
3270.84531	8.40075
3268.91675	8.32549
3266.98818	8.39424
3265.05962	8.50908
3263.13105	8.57345
3261.20249	8.68030
3259.27393	8.84873
3257.34536	8.86691
3255.41680	8.77418
3253.48823	8.78120
3251.55967	8.83706
3249.63110	8.75397
3247.70254	8.57608
3245.77397	8.43627
3243.84541	8.36489
3241.91685	8.40044
3239.98828	8.52520
3238.05972	8.59487
3236.13115	8.62441
3234.20259	8.63063
3232.27402	8.50460
3230.34546	8.39555
3228.41689	8.38672
3226.48833	8.41447
3224.55977	8.48946
3222.63120	8.52784
3220.70264	8.38628
3218.77407	8.20202
3216.84551	8.18972
3214.91694	8.29597
3212.98838	8.33932
3211.05981	8.32752
3209.13125	8.27609
3207.20269	8.18917
3205.27412	8.13237
3203.34556	8.07628
3201.41699	8.01394
3199.48843	7.99060
3197.55986	7.98188
3195.63130	7.92847
3193.70273	7.86236
3191.77417	7.83021
3189.84561	7.80171
3187.91704	7.79770
3185.98848	7.79951
3184.05991	7.70718
3182.13135	7.61760
3180.20278	7.65034
3178.27422	7.70137
3176.34565	7.62069
3174.41709	7.44141
3172.48853	7.28299
3170.55996	7.20573
3168.63140	7.21281
3166.70283	7.23156
3164.77427	7.18830
3162.84570	7.11105
3160.91714	7.02365
3158.98857	6.93594
3157.06001	6.86022
3155.13145	6.78026
3153.20288	6.69552
3151.27432	6.62535
3149.34575	6.56526
3147.41719	6.51024
3145.48862	6.46617
3143.56006	6.40141
3141.63149	6.29559
3139.70293	6.19431
3137.77437	6.13379
3135.84580	6.08233
3133.91724	6.00716
3131.98867	5.92305
3130.06011	5.84376
3128.13154	5.76993
3126.20298	5.69806
3124.27441	5.62314
3122.34585	5.54910
3120.41729	5.48089
3118.48872	5.41564
3116.56016	5.34852
3114.63159	5.27620
3112.70303	5.20314
3110.77446	5.13686
3108.84590	5.07288
3106.91733	5.00164
3104.98877	4.92592
3103.06021	4.85499
3101.13164	4.78674
3099.20308	4.71658
3097.27451	4.64447
3095.34595	4.57164
3093.41738	4.50270
3091.48882	4.43843
3089.56025	4.37565
3087.63169	4.31125
3085.70312	4.24510
3083.77456	4.18099
3081.84600	4.11941
3079.91743	4.05785
3077.98887	3.99523
3076.06030	3.93246
3074.13174	3.87216
3072.20317	3.81297
3070.27461	3.75119
3068.34604	3.68842
3066.41748	3.62819
3064.48892	3.57198
3062.56035	3.51811
3060.63179	3.46387
3058.70322	3.40887
3056.77466	3.35321
3054.84609	3.29765
3052.91753	3.24347
3050.98896	3.19026
3049.06040	3.13786
3047.13184	3.08646
3045.20327	3.03619
3043.27471	2.98705
3041.34614	2.93759
3039.41758	2.88842
3037.48901	2.84017
3035.56045	2.79129
3033.63188	2.74314
3031.70332	2.69706
3029.77476	2.65186
3027.84619	2.60745
3025.91763	2.56404
3023.98906	2.52092
3022.06050	2.47785
3020.13193	2.43531
3018.20337	2.39374
3016.27480	2.35374
3014.34624	2.31509
3012.41768	2.27594
3010.48911	2.23600
3008.56055	2.19689
3006.63198	2.15929
3004.70342	2.12294
3002.77485	2.08694
3000.84629	2.05074
2998.91772	2.01568
2996.98916	1.98269
2995.06060	1.95047
2993.13203	1.91768
2991.20347	1.88464
2989.27490	1.85221
2987.34634	1.82097
2985.41777	1.79115
2983.48921	1.76234
2981.56064	1.73362
2979.63208	1.70453
2977.70352	1.67568
2975.77495	1.64808
2973.84639	1.62185
2971.91782	1.59575
2969.98926	1.56896
2968.06069	1.54239
2966.13213	1.51696
2964.20356	1.49247
2962.27500	1.46818
2960.34644	1.44388
2958.41787	1.41979
2956.48931	1.39560
2954.56074	1.37133
2952.63218	1.34776
2950.70361	1.32484
2948.77505	1.30201
2946.84648	1.27942
2944.91792	1.25751
2942.98936	1.23605
2941.06079	1.21470
2939.13223	1.19410
2937.20366	1.17486
2935.27510	1.15617
2933.34653	1.13671
2931.41797	1.11679
2929.48940	1.09758
2927.56084	1.07921
2925.63228	1.06109
2923.70371	1.04317
2921.77515	1.02554
2919.84658	1.00810
2917.91802	0.99051
2915.98945	0.97265
2914.06089	0.95537
2912.13232	0.93921
2910.20376	0.92338
2908.27520	0.90746
2906.34663	0.89213
2904.41807	0.87742
2902.48950	0.86297
2900.56094	0.84896
2898.63237	0.83525
2896.70381	0.82179
2894.77524	0.80874
2892.84668	0.79598
2890.91812	0.78360
2888.98955	0.77156
2887.06099	0.75957
2885.13242	0.74783
2883.20386	0.73649
2881.27529	0.72544
2879.34673	0.71493
2877.41816	0.70488
2875.48960	0.69471
2873.56104	0.68423
2871.63247	0.67366
2869.70391	0.66295
2867.77534	0.65192
2865.84678	0.64077
2863.91821	0.62981
2861.98965	0.61909
2860.06108	0.60879
2858.13252	0.59919
2856.20396	0.59024
2854.27539	0.58154
2852.34683	0.57278
2850.41826	0.56404
2848.48970	0.55516
2846.56113	0.54611
2844.63257	0.53761
2842.70400	0.52990
2840.77544	0.52260
2838.84687	0.51560
2836.91831	0.50896
2834.98975	0.50255
2833.06118	0.49611
2831.13262	0.48944
2829.20405	0.48265
2827.27549	0.47626
2825.34692	0.47017
2823.41836	0.46390
2821.48979	0.45761
2819.56123	0.45149
2817.63267	0.44553
2815.70410	0.43967
2813.77554	0.43383
2811.84697	0.42802
2809.91841	0.42225
2807.98984	0.41664
2806.06128	0.41132
2804.13271	0.40614
2802.20415	0.40084
2800.27559	0.39565
2798.34702	0.39079
2796.41846	0.38594
2794.48989	0.38111
2792.56133	0.37647
2790.63276	0.37185
2788.70420	0.36716
2786.77563	0.36258
2784.84707	0.35824
2782.91851	0.35401
2780.98994	0.34973
2779.06138	0.34555
2777.13281	0.34156
2775.20425	0.33769
2773.27568	0.33391
2771.34712	0.33013
2769.41855	0.32627
2767.48999	0.32261
2765.56143	0.31926
2763.63286	0.31586
2761.70430	0.31230
2759.77573	0.30876
2757.84717	0.30539
2755.91860	0.30217
2753.99004	0.29903
2752.06147	0.29610
2750.13291	0.29333
2748.20435	0.29049
2746.27578	0.28761
2744.34722	0.28483
2742.41865	0.28205
2740.49009	0.27922
2738.56152	0.27643
2736.63296	0.27387
2734.70439	0.27152
2732.77583	0.26911
2730.84727	0.26670
2728.91870	0.26437
2726.99014	0.26208
2725.06157	0.25979
2723.13301	0.25745
2721.20444	0.25514
2719.27588	0.25308
2717.34731	0.25115
2715.41875	0.24910
2713.49019	0.24711
2711.56162	0.24532
2709.63306	0.24360
2707.70449	0.24192
2705.77593	0.24026
2703.84736	0.23857
2701.91880	0.23695
2699.99023	0.23547
2698.06167	0.23402
2696.13311	0.23254
2694.20454	0.23104
2692.27598	0.22949
2690.34741	0.22785
2688.41885	0.22626
2686.49028	0.22489
2684.56172	0.22367
2682.63315	0.22245
2680.70459	0.22131
2678.77603	0.22023
2676.84746	0.21910
2674.91890	0.21800
2672.99033	0.21697
2671.06177	0.21590
2669.13320	0.21481
2667.20464	0.21373
2665.27607	0.21269
2663.34751	0.21173
2661.41895	0.21079
2659.49038	0.20981
2657.56182	0.20899
2655.63325	0.20828
2653.70469	0.20749
2651.77612	0.20664
2649.84756	0.20593
2647.91899	0.20532
2645.99043	0.20476
2644.06187	0.20429
2642.13330	0.20373
2640.20474	0.20304
2638.27617	0.20237
2636.34761	0.20182
2634.41904	0.20139
2632.49048	0.20092
2630.56191	0.20037
2628.63335	0.19987
2626.70479	0.19942
2624.77622	0.19899
2622.84766	0.19873
2620.91909	0.19861
2618.99053	0.19844
2617.06196	0.19820
2615.13340	0.19798
2613.20483	0.19777
2611.27627	0.19752
2609.34771	0.19735
2607.41914	0.19724
2605.49058	0.19709
2603.56201	0.19695
2601.63345	0.19693
2599.70488	0.19698
2597.77632	0.19699
2595.84775	0.19692
2593.91919	0.19686
2591.99062	0.19704
2590.06206	0.19738
2588.13350	0.19753
2586.20493	0.19754
2584.27637	0.19766
2582.34780	0.19786
2580.41924	0.19807
2578.49067	0.19830
2576.56211	0.19852
2574.63354	0.19869
2572.70498	0.19893
2570.77642	0.19938
2568.84785	0.19987
2566.91929	0.20029
2564.99072	0.20071
2563.06216	0.20104
2561.13359	0.20122
2559.20503	0.20157
2557.27646	0.20215
2555.34790	0.20278
2553.41934	0.20334
2551.49077	0.20387
2549.56221	0.20442
2547.63364	0.20503
2545.70508	0.20561
2543.77651	0.20609
2541.84795	0.20654
2539.91938	0.20699
2537.99082	0.20742
2536.06226	0.20798
2534.13369	0.20879
2532.20513	0.20967
2530.27656	0.21040
2528.34800	0.21104
2526.41943	0.21174
2524.49087	0.21249
2522.56230	0.21330
2520.63374	0.21409
2518.70518	0.21482
2516.77661	0.21560
2514.84805	0.21636
2512.91948	0.21702
2510.99092	0.21771
2509.06235	0.21855
2507.13379	0.21944
2505.20522	0.22025
2503.27666	0.22101
2501.34810	0.22179
2499.41953	0.22261
2497.49097	0.22344
2495.56240	0.22429
2493.63384	0.22517
2491.70527	0.22606
2489.77671	0.22691
2487.84814	0.22777
2485.91958	0.22870
2483.99102	0.22964
2482.06245	0.23054
2480.13389	0.23143
2478.20532	0.23228
2476.27676	0.23308
2474.34819	0.23390
2472.41963	0.23467
2470.49106	0.23547
2468.56250	0.23648
2466.63394	0.23753
2464.70537	0.23847
2462.77681	0.23941
2460.84824	0.24030
2458.91968	0.24110
2456.99111	0.24198
2455.06255	0.24300
2453.13398	0.24408
2451.20542	0.24505
2449.27686	0.24594
2447.34829	0.24688
2445.41973	0.24792
2443.49116	0.24899
2441.56260	0.25002
2439.63403	0.25104
2437.70547	0.25201
2435.77690	0.25284
2433.84834	0.25375
2431.91978	0.25480
2429.99121	0.25582
2428.06265	0.25692
2426.13408	0.25814
2424.20552	0.25926
2422.27695	0.26027
2420.34839	0.26127
2418.41982	0.26237
2416.49126	0.26353
2414.56270	0.26459
2412.63413	0.26557
2410.70557	0.26661
2408.77700	0.26779
2406.84844	0.26913
2404.91987	0.27044
2402.99131	0.27162
2401.06274	0.27280
2399.13418	0.27404
2397.20562	0.27530
2395.27705	0.27656
2393.34849	0.27777
2391.41992	0.27893
2389.49136	0.28028
2387.56279	0.28206
2385.63423	0.28439
2383.70566	0.28744
2381.77710	0.29125
2379.84854	0.29571
2377.91997	0.30080
2375.99141	0.30662
2374.06284	0.31315
2372.13428	0.32065
2370.20571	0.32918
2368.27715	0.33767
2366.34858	0.34518
2364.42002	0.35184
2362.49146	0.35752
2360.56289	0.36117
2358.63433	0.36259
2356.70576	0.36216
2354.77720	0.35861
2352.84863	0.35215
2350.92007	0.34527
2348.99150	0.34120
2347.06294	0.34165
2345.13437	0.34733
2343.20581	0.35575
2341.27725	0.36072
2339.34868	0.36174
2337.42012	0.36175
2335.49155	0.36192
2333.56299	0.36223
2331.63442	0.36283
2329.70586	0.36373
2327.77729	0.36417
2325.84873	0.36364
2323.92017	0.36271
2321.99160	0.36173
2320.06304	0.36061
2318.13447	0.35934
2316.20591	0.35817
2314.27734	0.35777
2312.34878	0.35827
2310.42021	0.35896
2308.49165	0.35922
2306.56309	0.35905
2304.63452	0.35897
2302.70596	0.35942
2300.77739	0.36023
2298.84883	0.36110
2296.92026	0.36212
2294.99170	0.36321
2293.06313	0.36427
2291.13457	0.36541
2289.20601	0.36665
2287.27744	0.36783
2285.34888	0.36902
2283.42031	0.37050
2281.49175	0.37240
2279.56318	0.37462
2277.63462	0.37692
2275.70605	0.37909
2273.77749	0.38109
2271.84893	0.38305
2269.92036	0.38507
2267.99180	0.38713
2266.06323	0.38928
2264.13467	0.39142
2262.20610	0.39350
2260.27754	0.39551
2258.34897	0.39754
2256.42041	0.39968
2254.49185	0.40177
2252.56328	0.40364
2250.63472	0.40565
2248.70615	0.40798
2246.77759	0.41025
2244.84902	0.41229
2242.92046	0.41430
2240.99189	0.41632
2239.06333	0.41841
2237.13477	0.42066
2235.20620	0.42296
2233.27764	0.42522
2231.34907	0.42751
2229.42051	0.42991
2227.49194	0.43226
2225.56338	0.43435
2223.63481	0.43640
2221.70625	0.43868
2219.77769	0.44101
2217.84912	0.44317
2215.92056	0.44522
2213.99199	0.44731
2212.06343	0.44944
2210.13486	0.45158
2208.20630	0.45377
2206.27773	0.45598
2204.34917	0.45802
2202.42061	0.45993
2200.49204	0.46194
2198.56348	0.46395
2196.63491	0.46584
2194.70635	0.46781
2192.77778	0.46988
2190.84922	0.47187
2188.92065	0.47372
2186.99209	0.47550
2185.06353	0.47733
2183.13496	0.47907
2181.20640	0.48063
2179.27783	0.48217
2177.34927	0.48375
2175.42070	0.48534
2173.49214	0.48698
2171.56357	0.48859
2169.63501	0.48998
2167.70645	0.49114
2165.77788	0.49225
2163.84932	0.49348
2161.92075	0.49470
2159.99219	0.49569
2158.06362	0.49656
2156.13506	0.49754
2154.20649	0.49854
2152.27793	0.49945
2150.34937	0.50014
2148.42080	0.50068
2146.49224	0.50113
2144.56367	0.50147
2142.63511	0.50174
2140.70654	0.50206
2138.77798	0.50239
2136.84941	0.50256
2134.92085	0.50248
2132.99229	0.50228
2131.06372	0.50211
2129.13516	0.50200
2127.20659	0.50181
2125.27803	0.50139
2123.34946	0.50083
2121.42090	0.50018
2119.49233	0.49938
2117.56377	0.49853
2115.63521	0.49775
2113.70664	0.49695
2111.77808	0.49593
2109.84951	0.49471
2107.92095	0.49350
2105.99238	0.49230
2104.06382	0.49101
2102.13525	0.48971
2100.20669	0.48849
2098.27812	0.48715
2096.34956	0.48554
2094.42100	0.48385
2092.49243	0.48218
2090.56387	0.48039
2088.63530	0.47846
2086.70674	0.47653
2084.77817	0.47460
2082.84961	0.47261
2080.92104	0.47048
2078.99248	0.46825
2077.06392	0.46600
2075.13535	0.46378
2073.20679	0.46156
2071.27822	0.45916
2069.34966	0.45659
2067.42109	0.45406
2065.49253	0.45169
2063.56396	0.44937
2061.63540	0.44696
2059.70684	0.44434
2057.77827	0.44155
2055.84971	0.43876
2053.92114	0.43602
2051.99258	0.43337
2050.06401	0.43072
2048.13545	0.42797
2046.20688	0.42512
2044.27832	0.42236
2042.34976	0.41970
2040.42119	0.41688
2038.49263	0.41392
2036.56406	0.41102
2034.63550	0.40818
2032.70693	0.40520
2030.77837	0.40214
2028.84980	0.39914
2026.92124	0.39624
2024.99268	0.39344
2023.06411	0.39073
2021.13555	0.38800
2019.20698	0.38529
2017.27842	0.38250
2015.34985	0.37937
2013.42129	0.37610
2011.49272	0.37309
2009.56416	0.37032
2007.63560	0.36751
2005.70703	0.36463
2003.77847	0.36184
2001.84990	0.35915
1999.92134	0.35648
1997.99277	0.35376
1996.06421	0.35110
1994.13564	0.34873
1992.20708	0.34643
1990.27852	0.34374
1988.34995	0.34086
1986.42139	0.33812
1984.49282	0.33550
1982.56426	0.33294
1980.63569	0.33043
1978.70713	0.32801
1976.77856	0.32570
1974.85000	0.32342
1972.92144	0.32108
1970.99287	0.31886
1969.06431	0.31701
1967.13574	0.31526
1965.20718	0.31313
1963.27861	0.31084
1961.35005	0.30868
1959.42148	0.30660
1957.49292	0.30460
1955.56436	0.30270
1953.63579	0.30081
1951.70723	0.29895
1949.77866	0.29725
1947.85010	0.29572
1945.92153	0.29435
1943.99297	0.29314
1942.06440	0.29173
1940.13584	0.28974
1938.20728	0.28775
1936.27871	0.28624
1934.35015	0.28493
1932.42158	0.28358
1930.49302	0.28222
1928.56445	0.28095
1926.63589	0.27980
1924.70732	0.27905
1922.77876	0.27861
1920.85020	0.27783
1918.92163	0.27680
1916.99307	0.27563
1915.06450	0.27420
1913.13594	0.27299
1911.20737	0.27233
1909.27881	0.27183
1907.35024	0.27101
1905.42168	0.26999
1903.49312	0.26916
1901.56455	0.26853
1899.63599	0.26800
1897.70742	0.26764
1895.77886	0.26741
1893.85029	0.26705
1891.92173	0.26664
1889.99316	0.26660
1888.06460	0.26634
1886.13604	0.26566
1884.20747	0.26517
1882.27891	0.26486
1880.35034	0.26460
1878.42178	0.26443
1876.49321	0.26432
1874.56465	0.26425
1872.63608	0.26451
1870.70752	0.26550
1868.77896	0.26699
1866.85039	0.26723
1864.92183	0.26612
1862.99326	0.26540
1861.06470	0.26546
1859.13613	0.26585
1857.20757	0.26613
1855.27900	0.26641
1853.35044	0.26680
1851.42187	0.26737
1849.49331	0.26820
1847.56475	0.26936
1845.63618	0.27082
1843.70762	0.27216
1841.77905	0.27238
1839.85049	0.27207
1837.92192	0.27253
1835.99336	0.27340
1834.06479	0.27428
1832.13623	0.27559
1830.20767	0.27774
1828.27910	0.27942
1826.35054	0.28011
1824.42197	0.28107
1822.49341	0.28197
1820.56484	0.28281
1818.63628	0.28405
1816.70771	0.28559
1814.77915	0.28719
1812.85059	0.28927
1810.92202	0.29183
1808.99346	0.29393
1807.06489	0.29548
1805.13633	0.29716
1803.20776	0.29961
1801.27920	0.30267
1799.35063	0.30567
1797.42207	0.30804
1795.49351	0.31046
1793.56494	0.31380
1791.63638	0.31790
1789.70781	0.32069
1787.77925	0.32237
1785.85068	0.32522
1783.92212	0.32909
1781.99355	0.33332
1780.06499	0.33775
1778.13643	0.34206
1776.20786	0.34630
1774.27930	0.35146
1772.35073	0.35844
1770.42217	0.36485
1768.49360	0.36923
1766.56504	0.37351
1764.63647	0.37845
1762.70791	0.38467
1760.77935	0.39262
1758.85078	0.39971
1756.92222	0.40674
1754.99365	0.41442
1753.06509	0.42177
1751.13652	0.43130
1749.20796	0.44321
1747.27939	0.45379
1745.35083	0.46243
1743.42227	0.47168
1741.49370	0.48224
1739.56514	0.49487
1737.63657	0.50747
1735.70801	0.51892
1733.77944	0.53658
1731.85088	0.55646
1729.92231	0.57101
1727.99375	0.58571
1726.06519	0.60214
1724.13662	0.62100
1722.20806	0.64164
1720.27949	0.66096
1718.35093	0.68423
1716.42236	0.71790
1714.49380	0.74815
1712.56523	0.77180
1710.63667	0.79528
1708.70811	0.82146
1706.77954	0.85196
1704.85098	0.88817
1702.92241	0.91994
1700.99385	0.95161
1699.06528	0.99918
1697.13672	1.04206
1695.20815	1.08470
1693.27959	1.12609
1691.35103	1.15997
1689.42246	1.19994
1687.49390	1.24239
1685.56533	1.28388
1683.63677	1.34744
1681.70820	1.41133
1679.77964	1.45132
1677.85107	1.49044
1675.92251	1.53575
1673.99395	1.59178
1672.06538	1.64257
1670.13682	1.69276
1668.20825	1.75595
1666.27969	1.80530
1664.35112	1.84690
1662.42256	1.89925
1660.49399	1.96002
1658.56543	2.00964
1656.63687	2.05149
1654.70830	2.09154
1652.77974	2.15151
1650.85117	2.20260
1648.92261	2.22022
1646.99404	2.24771
1645.06548	2.27669
1643.13691	2.29447
1641.20835	2.30518
1639.27979	2.31662
1637.35122	2.32472
1635.42266	2.32385
1633.49409	2.31310
1631.56553	2.29777
1629.63696	2.28174
1627.70840	2.25556
1625.77983	2.22438
1623.85127	2.18428
1621.92271	2.13381
1619.99414	2.08793
1618.06558	2.04378
1616.13701	1.98233
1614.20845	1.92009
1612.27988	1.87218
1610.35132	1.82178
1608.42275	1.76769
1606.49419	1.71451
1604.56562	1.66523
1602.63706	1.61704
1600.70850	1.56973
1598.77993	1.52669
1596.85137	1.48673
1594.92280	1.44770
1592.99424	1.40921
1591.06567	1.37353
1589.13711	1.34008
1587.20854	1.30888
1585.27998	1.28004
1583.35142	1.25322
1581.42285	1.22881
1579.49429	1.20835
1577.56572	1.19068
1575.63716	1.16838
1573.70859	1.14731
1571.78003	1.13356
1569.85146	1.11977
1567.92290	1.10398
1565.99434	1.09176
1564.06577	1.08240
1562.13721	1.07539
1560.20864	1.07166
1558.28008	1.06720
1556.35151	1.06024
1554.42295	1.05477
1552.49438	1.04983
1550.56582	1.04419
1548.63726	1.03735
1546.70869	1.03039
1544.78013	1.02285
1542.85156	1.01359
1540.92300	0.99973
1538.99443	0.97592
1537.06587	0.95756
1535.13730	0.94612
1533.20874	0.93158
1531.28018	0.91522
1529.35161	0.90328
1527.42305	0.89276
1525.49448	0.88199
1523.56592	0.87292
1521.63735	0.86422
1519.70879	0.85428
1517.78022	0.84557
1515.85166	0.83580
1513.92310	0.82543
1511.99453	0.81706
1510.06597	0.81080
1508.13740	0.80580
1506.20884	0.79486
1504.28027	0.78180
1502.35171	0.77433
1500.42314	0.76906
1498.49458	0.76419
1496.56602	0.75823
1494.63745	0.75167
1492.70889	0.74670
1490.78032	0.74331
1488.85176	0.73955
1486.92319	0.73433
1484.99463	0.72926
1483.06606	0.72560
1481.13750	0.72312
1479.20894	0.72127
1477.28037	0.72012
1475.35181	0.71978
1473.42324	0.71985
1471.49468	0.71825
1469.56611	0.71493
1467.63755	0.71232
1465.70898	0.71071
1463.78042	0.70910
1461.85186	0.70756
1459.92329	0.70727
1457.99473	0.70838
1456.06616	0.70766
1454.13760	0.70351
1452.20903	0.69951
1450.28047	0.69640
1448.35190	0.69395
1446.42334	0.69128
1444.49478	0.68831
1442.56621	0.68569
1440.63765	0.68347
1438.70908	0.68163
1436.78052	0.67951
1434.85195	0.67632
1432.92339	0.67337
1430.99482	0.67163
1429.06626	0.67058
1427.13770	0.66968
1425.20913	0.66931
1423.28057	0.66947
1421.35200	0.66967
1419.42344	0.66995
1417.49487	0.66927
1415.56631	0.66711
1413.63774	0.66523
1411.70918	0.66419
1409.78062	0.66368
1407.85205	0.66356
1405.92349	0.66390
1403.99492	0.66398
1402.06636	0.66317
1400.13779	0.66215
1398.20923	0.66100
1396.28066	0.65912
1394.35210	0.65614
1392.42354	0.65247
1390.49497	0.64922
1388.56641	0.64655
1386.63784	0.64354
1384.70928	0.63969
1382.78071	0.63593
1380.85215	0.63288
1378.92358	0.63059
1376.99502	0.62910
1375.06646	0.62825
1373.13789	0.62710
1371.20933	0.62562
1369.28076	0.62450
1367.35220	0.62337
1365.42363	0.62221
1363.49507	0.62139
1361.56650	0.62015
1359.63794	0.61812
1357.70937	0.61629
1355.78081	0.61498
1353.85225	0.61389
1351.92368	0.61284
1349.99512	0.61190
1348.06655	0.61094
1346.13799	0.60990
1344.20942	0.60906
1342.28086	0.60861
1340.35229	0.60843
1338.42373	0.60783
1336.49517	0.60661
1334.56660	0.60542
1332.63804	0.60446
1330.70947	0.60371
1328.78091	0.60331
1326.85234	0.60327
1324.92378	0.60344
1322.99521	0.60376
1321.06665	0.60423
1319.13809	0.60458
1317.20952	0.60446
1315.28096	0.60396
1313.35239	0.60330
1311.42383	0.60243
1309.49526	0.60139
1307.56670	0.60050
1305.63813	0.59982
1303.70957	0.59905
1301.78101	0.59800
1299.85244	0.59686
1297.92388	0.59582
1295.99531	0.59464
1294.06675	0.59321
1292.13818	0.59183
1290.20962	0.59075
1288.28105	0.58984
1286.35249	0.58880
1284.42393	0.58767
1282.49536	0.58666
1280.56680	0.58568
1278.63823	0.58459
1276.70967	0.58354
1274.78110	0.58263
1272.85254	0.58181
1270.92397	0.58101
1268.99541	0.58025
1267.06685	0.57965
1265.13828	0.57904
1263.20972	0.57832
1261.28115	0.57770
1259.35259	0.57724
1257.42402	0.57669
1255.49546	0.57613
1253.56689	0.57581
1251.63833	0.57559
1249.70977	0.57537
1247.78120	0.57521
1245.85264	0.57508
1243.92407	0.57468
1241.99551	0.57384
1240.06694	0.57275
1238.13838	0.57164
1236.20981	0.57031
1234.28125	0.56868
1232.35269	0.56704
1230.42412	0.56541
1228.49556	0.56375
1226.56699	0.56210
1224.63843	0.56051
1222.70986	0.55908
1220.78130	0.55783
1218.85273	0.55659
1216.92417	0.55530
1214.99561	0.55406
1213.06704	0.55295
1211.13848	0.55205
1209.20991	0.55135
1207.28135	0.55074
1205.35278	0.55003
1203.42422	0.54916
1201.49565	0.54837
1199.56709	0.54780
1197.63853	0.54722
1195.70996	0.54634
1193.78140	0.54537
1191.85283	0.54464
1189.92427	0.54406
1187.99570	0.54338
1186.06714	0.54277
1184.13857	0.54263
1182.21001	0.54299
1180.28145	0.54379
1178.35288	0.54503
1176.42432	0.54634
1174.49575	0.54734
1172.56719	0.54806
1170.63862	0.54860
1168.71006	0.54903
1166.78149	0.54955
1164.85293	0.55022
1162.92437	0.55085
1160.99580	0.55121
1159.06724	0.55118
1157.13867	0.55074
1155.21011	0.54995
1153.28154	0.54886
1151.35298	0.54742
1149.42441	0.54528
1147.49585	0.54238
1145.56729	0.53929
1143.63872	0.53657
1141.71016	0.53413
1139.78159	0.53184
1137.85303	0.52980
1135.92446	0.52826
1133.99590	0.52733
1132.06733	0.52673
1130.13877	0.52615
1128.21021	0.52563
1126.28164	0.52519
1124.35308	0.52479
1122.42451	0.52435
1120.49595	0.52376
1118.56738	0.52338
1116.63882	0.52353
1114.71025	0.52389
1112.78169	0.52419
1110.85312	0.52463
1108.92456	0.52546
1106.99600	0.52645
1105.06743	0.52736
1103.13887	0.52832
1101.21030	0.52955
1099.28174	0.53132
1097.35317	0.53373
1095.42461	0.53656
1093.49604	0.54007
1091.56748	0.54486
1089.63892	0.55067
1087.71035	0.55715
1085.78179	0.56446
1083.85322	0.57224
1081.92466	0.57962
1079.99609	0.58553
1078.06753	0.58888
1076.13896	0.58933
1074.21040	0.58702
1072.28184	0.58231
1070.35327	0.57611
1068.42471	0.56942
1066.49614	0.56275
1064.56758	0.55657
1062.63901	0.55105
1060.71045	0.54587
1058.78188	0.54107
1056.85332	0.53714
1054.92476	0.53388
1052.99619	0.53073
1051.06763	0.52796
1049.13906	0.52615
1047.21050	0.52494
1045.28193	0.52390
1043.35337	0.52313
1041.42480	0.52262
1039.49624	0.52215
1037.56768	0.52171
1035.63911	0.52143
1033.71055	0.52127
1031.78198	0.52078
1029.85342	0.51982
1027.92485	0.51884
1025.99629	0.51803
1024.06772	0.51742
1022.13916	0.51713
1020.21060	0.51714
1018.28203	0.51736
1016.35347	0.51775
1014.42490	0.51814
1012.49634	0.51838
1010.56777	0.51858
1008.63921	0.51894
1006.71064	0.51963
1004.78208	0.52088
1002.85352	0.52279
1000.92495	0.52531
998.99639	0.52854
997.06782	0.53254
995.13926	0.53681
993.21069	0.54075
991.28213	0.54397
989.35356	0.54612
987.42500	0.54709
985.49644	0.54728
983.56787	0.54733
981.63931	0.54759
979.71074	0.54828
977.78218	0.54969
975.85361	0.55185
973.92505	0.55441
971.99648	0.55716
970.06792	0.56018
968.13936	0.56372
966.21079	0.56793
964.28223	0.57251
962.35366	0.57727
960.42510	0.58230
958.49653	0.58760
956.56797	0.59320
954.63940	0.59921
952.71084	0.60559
950.78228	0.61223
948.85371	0.61876
946.92515	0.62501
944.99658	0.63132
943.06802	0.63792
941.13945	0.64455
939.21089	0.65067
937.28232	0.65608
935.35376	0.66124
933.42520	0.66647
931.49663	0.67199
929.56807	0.67779
927.63950	0.68353
925.71094	0.68932
923.78237	0.69545
921.85381	0.70206
919.92524	0.70905
917.99668	0.71601
916.06812	0.72301
914.13955	0.73057
912.21099	0.73854
910.28242	0.74695
908.35386	0.75653
906.42529	0.76644
904.49673	0.77528
902.56816	0.78442
900.63960	0.79498
898.71104	0.80516
896.78247	0.81479
894.85391	0.82482
892.92534	0.83442
890.99678	0.84384
889.06821	0.85401
887.13965	0.86468
885.21108	0.87562
883.28252	0.88705
881.35396	0.89885
879.42539	0.91135
877.49683	0.92425
875.56826	0.93579
873.63970	0.94603
871.71113	0.95648
869.78257	0.96743
867.85400	0.97927
865.92544	0.99254
863.99687	1.00559
862.06831	1.01650
860.13975	1.02654
858.21118	1.03740
856.28262	1.04950
854.35405	1.06335
852.42549	1.07730
850.49692	1.08863
848.56836	1.09726
846.63979	1.10604
844.71123	1.11735
842.78267	1.13104
840.85410	1.14657
838.92554	1.16104
836.99697	1.17152
835.06841	1.18128
833.13984	1.19273
831.21128	1.20546
829.28271	1.22110
827.35415	1.23490
825.42559	1.24376
823.49702	1.25748
821.56846	1.27397
819.63989	1.28330
817.71133	1.29372
815.78276	1.31493
813.85420	1.33368
811.92563	1.33436
809.99707	1.33476
808.06851	1.35184
806.13994	1.36353
804.21138	1.35879
802.28281	1.36977
800.35425	1.39459
798.42568	1.40454
796.49712	1.41554
794.56855	1.45431
792.63999	1.50325
790.71143	1.51325
788.78286	1.51131
786.85430	1.53198
784.92573	1.58508
782.99717	1.65884
781.06860	1.63466
779.14004	1.56348
777.21147	1.55476
775.28291	1.53297
773.35435	1.50741
771.42578	1.59378
769.49722	1.77068
767.56865	2.15123
765.64009	2.23208
763.71152	1.77142
761.78296	1.64063
759.85439	1.57952
757.92583	1.41511
755.99727	1.27951
754.06870	1.19115
752.14014	1.14936
750.21157	1.20362
748.28301	1.20733
746.35444	1.12073
744.42588	1.19339
742.49731	1.47126
740.56875	1.19113
738.64019	0.91676
736.71162	0.88008
734.78306	0.89848
732.85449	0.78098
730.92593	0.65961
728.99736	0.55025
727.06880	0.43187
725.14023	0.35934
723.21167	0.36748
721.28311	0.38729
719.35454	0.19041
717.42598	-0.08326
715.49741	-0.16797
713.56885	-0.14054
711.64028	0.01268
709.71172	0.17097
707.78315	0.12395
705.85459	-0.04118
703.92603	-0.10873
701.99746	-0.05130
700.06890	0.01407
698.14033	0.09957
696.21177	0.28200
694.28320	0.56410
692.35464	0.65403
690.42607	0.52909
688.49751	0.46940
686.56895	0.43113
684.64038	0.40573
682.71182	0.45756
680.78325	0.51007
678.85469	0.42371
676.92612	0.34283
674.99756	0.34696
673.06899	0.29216
671.14043	0.20550
669.21187	0.20027
667.28330	0.28182
665.35474	0.41387
663.42617	0.48100
661.49761	0.40230
659.56904	0.28396
657.64048	0.25874
655.71191	0.34458
653.78335	0.44842
651.85479	0.38472
649.92622	0.30513
647.99766	0.31779
646.06909	0.39935
644.14053	0.46044
642.21196	0.39667
640.28340	0.32429
638.35483	0.32860
636.42627	0.31033
634.49771	0.27121
632.56914	0.34135
630.64058	0.54124
628.71201	0.56924
626.78345	0.42686
624.85488	0.36800
622.92632	0.38505
620.99775	0.37310
619.06919	0.30352
617.14062	0.32336
615.21206	0.44003
613.28350	0.45644
611.35493	0.36786
609.42637	0.34853
607.49780	0.35899
605.56924	0.38102
603.64067	0.40008
601.71211	0.36297
599.78354	0.34765
597.85498	0.41661
595.92642	0.45883
593.99785	0.38609
592.06929	0.36080
590.14072	0.39146
588.21216	0.35349
586.28359	0.27997
584.35503	0.23393
582.42646	0.20640
580.49790	0.17634
578.56934	0.17192
576.64077	0.27477
574.71221	0.65158
572.78364	3.43670
570.85508	0.51457
568.92651	0.26614
566.99795	0.18965
565.06938	0.19669
563.14082	0.21485
561.21226	0.24591
559.28369	0.30860
557.35513	0.30733
555.42656	0.23930
553.49800	0.20688
551.56943	0.20097
549.64087	0.20612
547.71230	0.26236
545.78374	0.36504
543.85518	0.43837
541.92661	0.39824
539.99805	0.27980
538.06948	0.19310
536.14092	0.19975
534.21235	0.30975
532.28379	0.45704
530.35522	0.43678
528.42666	0.28912
526.49810	0.19301
524.56953	0.16418
522.64097	0.18345
520.71240	0.21915
518.78384	0.24205
516.85527	0.23370
514.92671	0.21023
512.99814	0.21058
511.06958	0.26169
509.14102	0.33785
507.21245	0.37868
505.28389	0.37874
503.35532	0.33527
501.42676	0.27385
499.49819	0.24881
