3997.91411	0.11861
3995.98555	0.11875
3994.05698	0.11929
3992.12842	0.12023
3990.19985	0.12080
3988.27129	0.12070
3986.34272	0.12055
3984.41416	0.12067
3982.48560	0.12094
3980.55703	0.12133
3978.62847	0.12173
3976.69990	0.12216
3974.77134	0.12252
3972.84277	0.12256
3970.91421	0.12243
3968.98564	0.12237
3967.05708	0.12234
3965.12852	0.12243
3963.19995	0.12298
3961.27139	0.12366
3959.34282	0.12370
3957.41426	0.12345
3955.48569	0.12346
3953.55713	0.12352
3951.62856	0.12382
3949.70000	0.12473
3947.77144	0.12549
3945.84287	0.12512
3943.91431	0.12478
3941.98574	0.12508
3940.05718	0.12446
3938.12861	0.12319
3936.20005	0.12293
3934.27148	0.12379
3932.34292	0.12502
3930.41436	0.12553
3928.48579	0.12500
3926.55723	0.12473
3924.62866	0.12533
3922.70010	0.12553
3920.77153	0.12494
3918.84297	0.12481
3916.91440	0.12504
3914.98584	0.12422
3913.05728	0.12252
3911.12871	0.12130
3909.20015	0.12103
3907.27158	0.12211
3905.34302	0.12522
3903.41445	0.12900
3901.48589	0.13064
3899.55732	0.13030
3897.62876	0.12852
3895.70020	0.12572
3893.77163	0.12409
3891.84307	0.12472
3889.91450	0.12539
3887.98594	0.12451
3886.05737	0.12487
3884.12881	0.12688
3882.20024	0.12763
3880.27168	0.12714
3878.34312	0.12568
3876.41455	0.12414
3874.48599	0.12503
3872.55742	0.12808
3870.62886	0.13113
3868.70029	0.13281
3866.77173	0.13214
3864.84316	0.13157
3862.91460	0.13192
3860.98604	0.13063
3859.05747	0.12889
3857.12891	0.12939
3855.20034	0.13281
3853.27178	0.13883
3851.34321	0.14066
3849.41465	0.13518
3847.48608	0.13028
3845.55752	0.12849
3843.62896	0.12974
3841.70039	0.13333
3839.77183	0.13793
3837.84326	0.14143
3835.91470	0.14160
3833.98613	0.13977
3832.05757	0.13810
3830.12900	0.13681
3828.20044	0.13642
3826.27187	0.13763
3824.34331	0.13948
3822.41475	0.14182
3820.48618	0.14573
3818.55762	0.14761
3816.62905	0.14713
3814.70049	0.14641
3812.77192	0.14398
3810.84336	0.14163
3808.91479	0.14168
3806.98623	0.14419
3805.05767	0.14708
3803.12910	0.14978
3801.20054	0.15381
3799.27197	0.15578
3797.34341	0.15439
3795.41484	0.15306
3793.48628	0.15179
3791.55771	0.15120
3789.62915	0.15220
3787.70059	0.15405
3785.77202	0.15634
3783.84346	0.15857
3781.91489	0.16009
3779.98633	0.16220
3778.05776	0.16458
3776.12920	0.16477
3774.20063	0.16446
3772.27207	0.16618
3770.34351	0.16997
3768.41494	0.17365
3766.48638	0.17546
3764.55781	0.17680
3762.62925	0.17817
3760.70068	0.18035
3758.77212	0.18431
3756.84355	0.18799
3754.91499	0.19036
3752.98643	0.19421
3751.05786	0.20147
3749.12930	0.20801
3747.20073	0.20918
3745.27217	0.21011
3743.34360	0.21346
3741.41504	0.21594
3739.48647	0.21749
3737.55791	0.22133
3735.62935	0.22910
3733.70078	0.23718
3731.77222	0.23977
3729.84365	0.23995
3727.91509	0.24199
3725.98652	0.24753
3724.05796	0.25540
3722.12939	0.26264
3720.20083	0.26859
3718.27227	0.27396
3716.34370	0.27982
3714.41514	0.28722
3712.48657	0.29845
3710.55801	0.31468
3708.62944	0.32889
3706.70088	0.33794
3704.77231	0.34705
3702.84375	0.35956
3700.91519	0.37682
3698.98662	0.39520
3697.05806	0.41208
3695.12949	0.43028
3693.20093	0.45037
3691.27236	0.47346
3689.34380	0.50393
3687.41523	0.53859
3685.48667	0.56629
3683.55811	0.59051
3681.62954	0.61812
3679.70098	0.65032
3677.77241	0.68514
3675.84385	0.72748
3673.91528	0.78246
3671.98672	0.82424
3670.05815	0.86140
3668.12959	0.91313
3666.20103	0.95887
3664.27246	0.99759
3662.34390	1.04111
3660.41533	1.08894
3658.48677	1.13606
3656.55820	1.18638
3654.62964	1.24224
3652.70107	1.28878
3650.77251	1.33070
3648.84395	1.39068
3646.91538	1.46050
3644.98682	1.50692
3643.05825	1.54208
3641.12969	1.58010
3639.20112	1.62385
3637.27256	1.66873
3635.34399	1.71253
3633.41543	1.75656
3631.48687	1.79832
3629.55830	1.84139
3627.62974	1.89721
3625.70117	1.94684
3623.77261	1.97905
3621.84404	2.01082
3619.91548	2.04941
3617.98691	2.09721
3616.05835	2.14148
3614.12979	2.17693
3612.20122	2.21522
3610.27266	2.25523
3608.34409	2.29631
3606.41553	2.33948
3604.48696	2.37782
3602.55840	2.41116
3600.62983	2.44789
3598.70127	2.48932
3596.77271	2.53084
3594.84414	2.57309
3592.91558	2.61591
3590.98701	2.65514
3589.05845	2.69275
3587.12988	2.73983
3585.20132	2.78957
3583.27275	2.82756
3581.34419	2.86198
3579.41562	2.90027
3577.48706	2.94218
3575.55850	2.98639
3573.62993	3.03142
3571.70137	3.07340
3569.77280	3.11346
3567.84424	3.15817
3565.91567	3.21365
3563.98711	3.26582
3562.05854	3.30648
3560.12998	3.34557
3558.20142	3.38685
3556.27285	3.43016
3554.34429	3.47512
3552.41572	3.52338
3550.48716	3.57254
3548.55859	3.61912
3546.63003	3.66505
3544.70146	3.71327
3542.77290	3.76093
3540.84434	3.80611
3538.91577	3.85132
3536.98721	3.89708
3535.05864	3.94512
3533.13008	3.99549
3531.20151	4.04565
3529.27295	4.09392
3527.34438	4.14443
3525.41582	4.19569
3523.48726	4.24504
3521.55869	4.29673
3519.63013	4.34524
3517.70156	4.38854
3515.77300	4.43264
3513.84443	4.47828
3511.91587	4.52377
3509.98730	4.57257
3508.05874	4.62347
3506.13018	4.67108
3504.20161	4.71866
3502.27305	4.76911
3500.34448	4.81879
3498.41592	4.86418
3496.48735	4.90866
3494.55879	4.95869
3492.63022	5.01498
3490.70166	5.07202
3488.77310	5.12522
3486.84453	5.17400
3484.91597	5.22015
3482.98740	5.26816
3481.05884	5.31863
3479.13027	5.36115
3477.20171	5.40196
3475.27314	5.45860
3473.34458	5.51976
3471.41602	5.56581
3469.48745	5.60229
3467.55889	5.64393
3465.63032	5.69851
3463.70176	5.75366
3461.77319	5.79009
3459.84463	5.82903
3457.91606	5.88482
3455.98750	5.93878
3454.05894	5.99200
3452.13037	6.04990
3450.20181	6.10370
3448.27324	6.15234
3446.34468	6.20271
3444.41611	6.25683
3442.48755	6.31982
3440.55898	6.37951
3438.63042	6.41954
3436.70186	6.44908
3434.77329	6.48777
3432.84473	6.53980
3430.91616	6.59631
3428.98760	6.65674
3427.05903	6.70578
3425.13047	6.74127
3423.20190	6.77389
3421.27334	6.81413
3419.34478	6.85409
3417.41621	6.87648
3415.48765	6.91713
3413.55908	6.99184
3411.63052	7.06061
3409.70195	7.09787
3407.77339	7.13042
3405.84482	7.19289
3403.91626	7.27098
3401.98770	7.30267
3400.05913	7.30636
3398.13057	7.33393
3396.20200	7.37773
3394.27344	7.43292
3392.34487	7.48161
3390.41631	7.51747
3388.48774	7.55316
3386.55918	7.60856
3384.63062	7.65787
3382.70205	7.68532
3380.77349	7.71625
3378.84492	7.73326
3376.91636	7.72464
3374.98779	7.73245
3373.05923	7.82181
3371.13066	7.91609
3369.20210	7.91249
3367.27354	7.85582
3365.34497	7.82721
3363.41641	7.86844
3361.48784	7.95037
3359.55928	8.01284
3357.63071	8.07730
3355.70215	8.15920
3353.77358	8.13646
3351.84502	8.06118
3349.91646	8.05760
3347.98789	8.09335
3346.05933	8.08027
3344.13076	8.01030
3342.20220	7.96226
3340.27363	7.97858
3338.34507	8.04842
3336.41650	8.09444
3334.48794	8.12155
3332.55937	8.14932
3330.63081	8.15352
3328.70225	8.18636
3326.77368	8.26105
3324.84512	8.30970
3322.91655	8.35283
3320.98799	8.39599
3319.05942	8.30392
3317.13086	8.19086
3315.20229	8.19107
3313.27373	8.26099
3311.34517	8.31944
3309.41660	8.29353
3307.48804	8.26757
3305.55947	8.35795
3303.63091	8.50559
3301.70234	8.59686
3299.77378	8.58942
3297.84521	8.37488
3295.91665	8.11308
3293.98809	8.01629
3292.05952	8.08273
3290.13096	8.21326
3288.20239	8.23640
3286.27383	8.18381
3284.34526	8.18410
3282.41670	8.18366
3280.48813	8.14764
3278.55957	8.11864
3276.63101	8.07011
3274.70244	8.07143
3272.77388	8.14399
3270.84531	8.11284
3268.91675	8.06603
3266.98818	8.16363
3265.05962	8.24583
3263.13105	8.17054
3261.20249	8.08987
3259.27393	8.08976
3257.34536	8.15647
3255.41680	8.24309
3253.48823	8.25882
3251.55967	8.26238
3249.63110	8.32091
3247.70254	8.33559
3245.77397	8.29030
3243.84541	8.32808
3241.91685	8.45519
3239.98828	8.43024
3238.05972	8.23093
3236.13115	8.17246
3234.20259	8.32242
3232.27402	8.40190
3230.34546	8.26583
3228.41689	8.12991
3226.48833	8.09527
3224.55977	8.11725
3222.63120	8.18117
3220.70264	8.25834
3218.77407	8.33509
3216.84551	8.39278
3214.91694	8.32423
3212.98838	8.13203
3211.05981	7.95117
3209.13125	7.85026
3207.20269	7.86667
3205.27412	8.02296
3203.34556	8.20421
3201.41699	8.20063
3199.48843	8.01204
3197.55986	7.82716
3195.63130	7.72978
3193.70273	7.70288
3191.77417	7.69390
3189.84561	7.64473
3187.91704	7.56684
3185.98848	7.51270
3184.05991	7.50385
3182.13135	7.49530
3180.20278	7.45489
3178.27422	7.43111
3176.34565	7.41284
3174.41709	7.32856
3172.48853	7.23597
3170.55996	7.20541
3168.63140	7.17668
3166.70283	7.11858
3164.77427	7.07543
3162.84570	7.02436
3160.91714	6.93271
3158.98857	6.82691
3157.06001	6.72051
3155.13145	6.62292
3153.20288	6.54819
3151.27432	6.49666
3149.34575	6.44754
3147.41719	6.38389
3145.48862	6.32298
3143.56006	6.26466
3141.63149	6.19486
3139.70293	6.11720
3137.77437	6.04032
3135.84580	5.97420
3133.91724	5.91597
3131.98867	5.85100
3130.06011	5.78025
3128.13154	5.70887
3126.20298	5.63119
3124.27441	5.55808
3122.34585	5.49275
3120.41729	5.41562
3118.48872	5.33439
3116.56016	5.26608
3114.63159	5.19957
3112.70303	5.13011
3110.77446	5.06593
3108.84590	5.00124
3106.91733	4.93085
3104.98877	4.86027
3103.06021	4.79156
3101.13164	4.72317
3099.20308	4.65883
3097.27451	4.59836
3095.34595	4.53396
3093.41738	4.46521
3091.48882	4.39676
3089.56025	4.32925
3087.63169	4.26316
3085.70312	4.20129
3083.77456	4.14300
3081.84600	4.08393
3079.91743	4.02318
3077.98887	3.96103
3076.06030	3.89836
3074.13174	3.83825
3072.20317	3.78068
3070.27461	3.72297
3068.34604	3.66363
3066.41748	3.60452
3064.48892	3.54842
3062.56035	3.49445
3060.63179	3.44062
3058.70322	3.38659
3056.77466	3.33241
3054.84609	3.27776
3052.91753	3.22324
3050.98896	3.17007
3049.06040	3.11888
3047.13184	3.06875
3045.20327	3.01854
3043.27471	2.96904
3041.34614	2.92021
3039.41758	2.87167
3037.48901	2.82368
3035.56045	2.77615
3033.63188	2.72975
3031.70332	2.68498
3029.77476	2.64102
3027.84619	2.59652
3025.91763	2.55192
3023.98906	2.50835
3022.06050	2.46559
3020.13193	2.42390
3018.20337	2.38366
3016.27480	2.34357
3014.34624	2.30298
3012.41768	2.26319
3010.48911	2.22481
3008.56055	2.18707
3006.63198	2.14966
3004.70342	2.11325
3002.77485	2.07793
3000.84629	2.04263
2998.91772	2.00752
2996.98916	1.97389
2995.06060	1.94163
2993.13203	1.90958
2991.20347	1.87789
2989.27490	1.84737
2987.34634	1.81793
2985.41777	1.78890
2983.48921	1.75984
2981.56064	1.73094
2979.63208	1.70274
2977.70352	1.67541
2975.77495	1.64882
2973.84639	1.62261
2971.91782	1.59657
2969.98926	1.57117
2968.06069	1.54686
2966.13213	1.52291
2964.20356	1.49850
2962.27500	1.47400
2960.34644	1.44986
2958.41787	1.42594
2956.48931	1.40210
2954.56074	1.37805
2952.63218	1.35383
2950.70361	1.33002
2948.77505	1.30667
2946.84648	1.28356
2944.91792	1.26109
2942.98936	1.23989
2941.06079	1.21949
2939.13223	1.19908
2937.20366	1.17904
2935.27510	1.15992
2933.34653	1.14127
2931.41797	1.12248
2929.48940	1.10359
2927.56084	1.08459
2925.63228	1.06538
2923.70371	1.04674
2921.77515	1.02913
2919.84658	1.01168
2917.91802	0.99359
2915.98945	0.97532
2914.06089	0.95759
2912.13232	0.94081
2910.20376	0.92489
2908.27520	0.90894
2906.34663	0.89282
2904.41807	0.87703
2902.48950	0.86159
2900.56094	0.84664
2898.63237	0.83241
2896.70381	0.81879
2894.77524	0.80557
2892.84668	0.79263
2890.91812	0.78014
2888.98955	0.76832
2887.06099	0.75677
2885.13242	0.74513
2883.20386	0.73387
2881.27529	0.72341
2879.34673	0.71331
2877.41816	0.70312
2875.48960	0.69311
2873.56104	0.68323
2871.63247	0.67301
2869.70391	0.66198
2867.77534	0.65033
2865.84678	0.63886
2863.91821	0.62781
2861.98965	0.61698
2860.06108	0.60653
2858.13252	0.59658
2856.20396	0.58722
2854.27539	0.57836
2852.34683	0.56962
2850.41826	0.56086
2848.48970	0.55211
2846.56113	0.54324
2844.63257	0.53460
2842.70400	0.52660
2840.77544	0.51917
2838.84687	0.51207
2836.91831	0.50512
2834.98975	0.49836
2833.06118	0.49191
2831.13262	0.48573
2829.20405	0.47960
2827.27549	0.47340
2825.34692	0.46722
2823.41836	0.46109
2821.48979	0.45495
2819.56123	0.44889
2817.63267	0.44298
2815.70410	0.43720
2813.77554	0.43149
2811.84697	0.42586
2809.91841	0.42021
2807.98984	0.41454
2806.06128	0.40900
2804.13271	0.40358
2802.20415	0.39834
2800.27559	0.39334
2798.34702	0.38846
2796.41846	0.38351
2794.48989	0.37843
2792.56133	0.37346
2790.63276	0.36876
2788.70420	0.36420
2786.77563	0.35972
2784.84707	0.35540
2782.91851	0.35116
2780.98994	0.34699
2779.06138	0.34296
2777.13281	0.33894
2775.20425	0.33478
2773.27568	0.33063
2771.34712	0.32673
2769.41855	0.32312
2767.48999	0.31951
2765.56143	0.31586
2763.63286	0.31242
2761.70430	0.30915
2759.77573	0.30583
2757.84717	0.30241
2755.91860	0.29908
2753.99004	0.29594
2752.06147	0.29287
2750.13291	0.28982
2748.20435	0.28677
2746.27578	0.28381
2744.34722	0.28097
2742.41865	0.27811
2740.49009	0.27526
2738.56152	0.27255
2736.63296	0.27002
2734.70439	0.26762
2732.77583	0.26516
2730.84727	0.26270
2728.91870	0.26038
2726.99014	0.25814
2725.06157	0.25592
2723.13301	0.25365
2721.20444	0.25132
2719.27588	0.24902
2717.34731	0.24680
2715.41875	0.24475
2713.49019	0.24292
2711.56162	0.24109
2709.63306	0.23925
2707.70449	0.23759
2705.77593	0.23596
2703.84736	0.23419
2701.91880	0.23253
2699.99023	0.23115
2698.06167	0.22982
2696.13311	0.22824
2694.20454	0.22650
2692.27598	0.22489
2690.34741	0.22360
2688.41885	0.22255
2686.49028	0.22148
2684.56172	0.22018
2682.63315	0.21878
2680.70459	0.21758
2678.77603	0.21657
2676.84746	0.21555
2674.91890	0.21447
2672.99033	0.21321
2671.06177	0.21191
2669.13320	0.21078
2667.20464	0.20970
2665.27607	0.20869
2663.34751	0.20780
2661.41895	0.20701
2659.49038	0.20632
2657.56182	0.20560
2655.63325	0.20474
2653.70469	0.20385
2651.77612	0.20303
2649.84756	0.20230
2647.91899	0.20159
2645.99043	0.20090
2644.06187	0.20030
2642.13330	0.19988
2640.20474	0.19952
2638.27617	0.19915
2636.34761	0.19865
2634.41904	0.19796
2632.49048	0.19731
2630.56191	0.19683
2628.63335	0.19642
2626.70479	0.19607
2624.77622	0.19582
2622.84766	0.19559
2620.91909	0.19531
2618.99053	0.19503
2617.06196	0.19480
2615.13340	0.19458
2613.20483	0.19437
2611.27627	0.19423
2609.34771	0.19407
2607.41914	0.19383
2605.49058	0.19361
2603.56201	0.19348
2601.63345	0.19337
2599.70488	0.19326
2597.77632	0.19332
2595.84775	0.19349
2593.91919	0.19346
2591.99062	0.19331
2590.06206	0.19334
2588.13350	0.19355
2586.20493	0.19379
2584.27637	0.19404
2582.34780	0.19432
2580.41924	0.19459
2578.49067	0.19478
2576.56211	0.19486
2574.63354	0.19494
2572.70498	0.19517
2570.77642	0.19553
2568.84785	0.19600
2566.91929	0.19645
2564.99072	0.19680
2563.06216	0.19719
2561.13359	0.19765
2559.20503	0.19808
2557.27646	0.19842
2555.34790	0.19872
2553.41934	0.19918
2551.49077	0.19983
2549.56221	0.20035
2547.63364	0.20072
2545.70508	0.20124
2543.77651	0.20193
2541.84795	0.20258
2539.91938	0.20307
2537.99082	0.20350
2536.06226	0.20418
2534.13369	0.20506
2532.20513	0.20577
2530.27656	0.20634
2528.34800	0.20699
2526.41943	0.20771
2524.49087	0.20847
2522.56230	0.20924
2520.63374	0.21002
2518.70518	0.21081
2516.77661	0.21152
2514.84805	0.21222
2512.91948	0.21303
2510.99092	0.21383
2509.06235	0.21457
2507.13379	0.21536
2505.20522	0.21616
2503.27666	0.21690
2501.34810	0.21760
2499.41953	0.21828
2497.49097	0.21901
2495.56240	0.21984
2493.63384	0.22075
2491.70527	0.22172
2489.77671	0.22265
2487.84814	0.22349
2485.91958	0.22434
2483.99102	0.22528
2482.06245	0.22616
2480.13389	0.22695
2478.20532	0.22774
2476.27676	0.22858
2474.34819	0.22947
2472.41963	0.23042
2470.49106	0.23133
2468.56250	0.23214
2466.63394	0.23287
2464.70537	0.23373
2462.77681	0.23475
2460.84824	0.23581
2458.91968	0.23677
2456.99111	0.23764
2455.06255	0.23852
2453.13398	0.23947
2451.20542	0.24044
2449.27686	0.24136
2447.34829	0.24230
2445.41973	0.24330
2443.49116	0.24434
2441.56260	0.24541
2439.63403	0.24650
2437.70547	0.24752
2435.77690	0.24846
2433.84834	0.24940
2431.91978	0.25039
2429.99121	0.25137
2428.06265	0.25236
2426.13408	0.25346
2424.20552	0.25461
2422.27695	0.25570
2420.34839	0.25682
2418.41982	0.25798
2416.49126	0.25912
2414.56270	0.26026
2412.63413	0.26139
2410.70557	0.26252
2408.77700	0.26372
2406.84844	0.26491
2404.91987	0.26607
2402.99131	0.26729
2401.06274	0.26854
2399.13418	0.26975
2397.20562	0.27097
2395.27705	0.27220
2393.34849	0.27342
2391.41992	0.27468
2389.49136	0.27606
2387.56279	0.27761
2385.63423	0.27944
2383.70566	0.28171
2381.77710	0.28453
2379.84854	0.28783
2377.91997	0.29163
2375.99141	0.29598
2374.06284	0.30083
2372.13428	0.30622
2370.20571	0.31249
2368.27715	0.31933
2366.34858	0.32558
2364.42002	0.33082
2362.49146	0.33572
2360.56289	0.33932
2358.63433	0.34058
2356.70576	0.33978
2354.77720	0.33715
2352.84863	0.33364
2350.92007	0.32973
2348.99150	0.32695
2347.06294	0.32698
2345.13437	0.33050
2343.20581	0.33626
2341.27725	0.34102
2339.34868	0.34331
2337.42012	0.34403
2335.49155	0.34463
2333.56299	0.34530
2331.63442	0.34616
2329.70586	0.34720
2327.77729	0.34790
2325.84873	0.34801
2323.92017	0.34788
2321.99160	0.34774
2320.06304	0.34758
2318.13447	0.34738
2316.20591	0.34725
2314.27734	0.34752
2312.34878	0.34833
2310.42021	0.34939
2308.49165	0.35028
2306.56309	0.35084
2304.63452	0.35125
2302.70596	0.35200
2300.77739	0.35317
2298.84883	0.35453
2296.92026	0.35589
2294.99170	0.35720
2293.06313	0.35863
2291.13457	0.36013
2289.20601	0.36153
2287.27744	0.36293
2285.34888	0.36441
2283.42031	0.36602
2281.49175	0.36781
2279.56318	0.36988
2277.63462	0.37213
2275.70605	0.37429
2273.77749	0.37637
2271.84893	0.37847
2269.92036	0.38062
2267.99180	0.38276
2266.06323	0.38480
2264.13467	0.38683
2262.20610	0.38895
2260.27754	0.39099
2258.34897	0.39292
2256.42041	0.39488
2254.49185	0.39692
2252.56328	0.39911
2250.63472	0.40136
2248.70615	0.40346
2246.77759	0.40548
2244.84902	0.40757
2242.92046	0.40981
2240.99189	0.41217
2239.06333	0.41445
2237.13477	0.41661
2235.20620	0.41882
2233.27764	0.42111
2231.34907	0.42335
2229.42051	0.42552
2227.49194	0.42770
2225.56338	0.42990
2223.63481	0.43214
2221.70625	0.43442
2219.77769	0.43663
2217.84912	0.43875
2215.92056	0.44086
2213.99199	0.44302
2212.06343	0.44519
2210.13486	0.44733
2208.20630	0.44950
2206.27773	0.45163
2204.34917	0.45366
2202.42061	0.45561
2200.49204	0.45756
2198.56348	0.45969
2196.63491	0.46198
2194.70635	0.46420
2192.77778	0.46619
2190.84922	0.46796
2188.92065	0.46960
2186.99209	0.47124
2185.06353	0.47299
2183.13496	0.47488
2181.20640	0.47675
2179.27783	0.47841
2177.34927	0.47994
2175.42070	0.48148
2173.49214	0.48307
2171.56357	0.48459
2169.63501	0.48594
2167.70645	0.48711
2165.77788	0.48821
2163.84932	0.48933
2161.92075	0.49042
2159.99219	0.49154
2158.06362	0.49268
2156.13506	0.49359
2154.20649	0.49425
2152.27793	0.49492
2150.34937	0.49571
2148.42080	0.49647
2146.49224	0.49703
2144.56367	0.49735
2142.63511	0.49756
2140.70654	0.49787
2138.77798	0.49830
2136.84941	0.49856
2134.92085	0.49850
2132.99229	0.49830
2131.06372	0.49811
2129.13516	0.49791
2127.20659	0.49769
2125.27803	0.49741
2123.34946	0.49701
2121.42090	0.49640
2119.49233	0.49569
2117.56377	0.49504
2115.63521	0.49434
2113.70664	0.49350
2111.77808	0.49249
2109.84951	0.49132
2107.92095	0.49017
2105.99238	0.48907
2104.06382	0.48795
2102.13525	0.48666
2100.20669	0.48518
2098.27812	0.48359
2096.34956	0.48198
2094.42100	0.48035
2092.49243	0.47870
2090.56387	0.47705
2088.63530	0.47528
2086.70674	0.47340
2084.77817	0.47144
2082.84961	0.46936
2080.92104	0.46715
2078.99248	0.46494
2077.06392	0.46278
2075.13535	0.46060
2073.20679	0.45833
2071.27822	0.45604
2069.34966	0.45379
2067.42109	0.45149
2065.49253	0.44906
2063.56396	0.44654
2061.63540	0.44401
2059.70684	0.44143
2057.77827	0.43875
2055.84971	0.43605
2053.92114	0.43335
2051.99258	0.43065
2050.06401	0.42793
2048.13545	0.42522
2046.20688	0.42249
2044.27832	0.41981
2042.34976	0.41717
2040.42119	0.41444
2038.49263	0.41152
2036.56406	0.40855
2034.63550	0.40563
2032.70693	0.40274
2030.77837	0.39989
2028.84980	0.39705
2026.92124	0.39421
2024.99268	0.39131
2023.06411	0.38839
2021.13555	0.38547
2019.20698	0.38271
2017.27842	0.38011
2015.34985	0.37725
2013.42129	0.37409
2011.49272	0.37104
2009.56416	0.36826
2007.63560	0.36560
2005.70703	0.36286
2003.77847	0.36002
2001.84990	0.35725
1999.92134	0.35460
1997.99277	0.35192
1996.06421	0.34920
1994.13564	0.34682
1992.20708	0.34476
1990.27852	0.34235
1988.34995	0.33947
1986.42139	0.33652
1984.49282	0.33373
1982.56426	0.33115
1980.63569	0.32870
1978.70713	0.32635
1976.77856	0.32403
1974.85000	0.32169
1972.92144	0.31940
1970.99287	0.31731
1969.06431	0.31553
1967.13574	0.31384
1965.20718	0.31166
1963.27861	0.30920
1961.35005	0.30702
1959.42148	0.30507
1957.49292	0.30319
1955.56436	0.30139
1953.63579	0.29966
1951.70723	0.29790
1949.77866	0.29611
1947.85010	0.29441
1945.92153	0.29297
1943.99297	0.29182
1942.06440	0.29052
1940.13584	0.28858
1938.20728	0.28653
1936.27871	0.28494
1934.35015	0.28362
1932.42158	0.28237
1930.49302	0.28103
1928.56445	0.27969
1926.63589	0.27858
1924.70732	0.27796
1922.77876	0.27759
1920.85020	0.27673
1918.92163	0.27561
1916.99307	0.27449
1915.06450	0.27318
1913.13594	0.27210
1911.20737	0.27153
1909.27881	0.27103
1907.35024	0.27020
1905.42168	0.26920
1903.49312	0.26834
1901.56455	0.26765
1899.63599	0.26710
1897.70742	0.26679
1895.77886	0.26661
1893.85029	0.26628
1891.92173	0.26593
1889.99316	0.26596
1888.06460	0.26575
1886.13604	0.26507
1884.20747	0.26450
1882.27891	0.26407
1880.35034	0.26378
1878.42178	0.26367
1876.49321	0.26356
1874.56465	0.26346
1872.63608	0.26377
1870.70752	0.26478
1868.77896	0.26619
1866.85039	0.26644
1864.92183	0.26547
1862.99326	0.26484
1861.06470	0.26485
1859.13613	0.26516
1857.20757	0.26544
1855.27900	0.26573
1853.35044	0.26611
1851.42187	0.26671
1849.49331	0.26760
1847.56475	0.26882
1845.63618	0.27027
1843.70762	0.27142
1841.77905	0.27144
1839.85049	0.27115
1837.92192	0.27173
1835.99336	0.27267
1834.06479	0.27354
1832.13623	0.27491
1830.20767	0.27722
1828.27910	0.27910
1826.35054	0.27988
1824.42197	0.28081
1822.49341	0.28156
1820.56484	0.28219
1818.63628	0.28333
1816.70771	0.28497
1814.77915	0.28666
1812.85059	0.28864
1810.92202	0.29105
1808.99346	0.29323
1807.06489	0.29491
1805.13633	0.29658
1803.20776	0.29894
1801.27920	0.30198
1799.35063	0.30513
1797.42207	0.30769
1795.49351	0.31016
1793.56494	0.31350
1791.63638	0.31762
1789.70781	0.32042
1787.77925	0.32209
1785.85068	0.32496
1783.92212	0.32889
1781.99355	0.33309
1780.06499	0.33739
1778.13643	0.34159
1776.20786	0.34568
1774.27930	0.35072
1772.35073	0.35773
1770.42217	0.36423
1768.49360	0.36863
1766.56504	0.37298
1764.63647	0.37798
1762.70791	0.38415
1760.77935	0.39200
1758.85078	0.39896
1756.92222	0.40601
1754.99365	0.41390
1753.06509	0.42136
1751.13652	0.43089
1749.20796	0.44281
1747.27939	0.45347
1745.35083	0.46220
1743.42227	0.47153
1741.49370	0.48208
1739.56514	0.49463
1737.63657	0.50705
1735.70801	0.51818
1733.77944	0.53546
1731.85088	0.55521
1729.92231	0.56990
1727.99375	0.58478
1726.06519	0.60107
1724.13662	0.61950
1722.20806	0.63983
1720.27949	0.65906
1718.35093	0.68250
1716.42236	0.71642
1714.49380	0.74653
1712.56523	0.76991
1710.63667	0.79311
1708.70811	0.81888
1706.77954	0.84908
1704.85098	0.88549
1702.92241	0.91760
1700.99385	0.94941
1699.06528	0.99744
1697.13672	1.04105
1695.20815	1.08445
1693.27959	1.12678
1691.35103	1.16170
1689.42246	1.20309
1687.49390	1.24722
1685.56533	1.29033
1683.63677	1.35751
1681.70820	1.42561
1679.77964	1.46702
1677.85107	1.50692
1675.92251	1.55379
1673.99395	1.61289
1672.06538	1.66646
1670.13682	1.71905
1668.20825	1.78694
1666.27969	1.84184
1664.35112	1.88888
1662.42256	1.94822
1660.49399	2.01636
1658.56543	2.06994
1656.63687	2.11337
1654.70830	2.15287
1652.77974	2.21346
1650.85117	2.27067
1648.92261	2.28923
1646.99404	2.31207
1645.06548	2.33652
1643.13691	2.35628
1641.20835	2.36855
1639.27979	2.37768
1637.35122	2.38194
1635.42266	2.37969
1633.49409	2.37034
1631.56553	2.35627
1629.63696	2.33973
1627.70840	2.31048
1625.77983	2.27580
1623.85127	2.23262
1621.92271	2.18051
1619.99414	2.13449
1618.06558	2.09113
1616.13701	2.02834
1614.20845	1.96140
1612.27988	1.90983
1610.35132	1.85703
1608.42275	1.80114
1606.49419	1.74668
1604.56562	1.69630
1602.63706	1.64708
1600.70850	1.59890
1598.77993	1.55493
1596.85137	1.51417
1594.92280	1.47471
1592.99424	1.43617
1591.06567	1.40087
1589.13711	1.36785
1587.20854	1.33701
1585.27998	1.30865
1583.35142	1.28240
1581.42285	1.25865
1579.49429	1.23895
1577.56572	1.22220
1575.63716	1.20166
1573.70859	1.18249
1571.78003	1.17020
1569.85146	1.15879
1567.92290	1.14617
1565.99434	1.13659
1564.06577	1.13015
1562.13721	1.12605
1560.20864	1.12530
1558.28008	1.12842
1556.35151	1.12933
1554.42295	1.12785
1552.49438	1.12700
1550.56582	1.12560
1548.63726	1.12186
1546.70869	1.11551
1544.78013	1.10683
1542.85156	1.09622
1540.92300	1.08064
1538.99443	1.05240
1537.06587	1.02977
1535.13730	1.01510
1533.20874	0.99609
1531.28018	0.97489
1529.35161	0.95938
1527.42305	0.94573
1525.49448	0.93228
1523.56592	0.92128
1521.63735	0.91066
1519.70879	0.89861
1517.78022	0.88823
1515.85166	0.87643
1513.92310	0.86358
1511.99453	0.85287
1510.06597	0.84448
1508.13740	0.83725
1506.20884	0.82306
1504.28027	0.80759
1502.35171	0.79882
1500.42314	0.79249
1498.49458	0.78667
1496.56602	0.77943
1494.63745	0.77119
1492.70889	0.76511
1490.78032	0.76116
1488.85176	0.75653
1486.92319	0.75013
1484.99463	0.74440
1483.06606	0.74051
1481.13750	0.73786
1479.20894	0.73606
1477.28037	0.73557
1475.35181	0.73642
1473.42324	0.73767
1471.49468	0.73682
1469.56611	0.73361
1467.63755	0.73070
1465.70898	0.72889
1463.78042	0.72740
1461.85186	0.72604
1459.92329	0.72607
1457.99473	0.72771
1456.06616	0.72721
1454.13760	0.72283
1452.20903	0.71859
1450.28047	0.71524
1448.35190	0.71244
1446.42334	0.70913
1444.49478	0.70554
1442.56621	0.70237
1440.63765	0.69948
1438.70908	0.69699
1436.78052	0.69443
1434.85195	0.69076
1432.92339	0.68729
1430.99482	0.68513
1429.06626	0.68383
1427.13770	0.68312
1425.20913	0.68344
1423.28057	0.68435
1421.35200	0.68496
1419.42344	0.68577
1417.49487	0.68584
1415.56631	0.68409
1413.63774	0.68254
1411.70918	0.68218
1409.78062	0.68261
1407.85205	0.68349
1405.92349	0.68494
1403.99492	0.68620
1402.06636	0.68628
1400.13779	0.68568
1398.20923	0.68463
1396.28066	0.68277
1394.35210	0.67927
1392.42354	0.67430
1390.49497	0.66964
1388.56641	0.66565
1386.63784	0.66118
1384.70928	0.65598
1382.78071	0.65091
1380.85215	0.64627
1378.92358	0.64244
1376.99502	0.63982
1375.06646	0.63820
1373.13789	0.63666
1371.20933	0.63506
1369.28076	0.63382
1367.35220	0.63252
1365.42363	0.63110
1363.49507	0.63001
1361.56650	0.62865
1359.63794	0.62657
1357.70937	0.62470
1355.78081	0.62329
1353.85225	0.62216
1351.92368	0.62136
1349.99512	0.62085
1348.06655	0.62035
1346.13799	0.61959
1344.20942	0.61868
1342.28086	0.61809
1340.35229	0.61796
1338.42373	0.61750
1336.49517	0.61640
1334.56660	0.61541
1332.63804	0.61499
1330.70947	0.61506
1328.78091	0.61533
1326.85234	0.61570
1324.92378	0.61630
1322.99521	0.61712
1321.06665	0.61795
1319.13809	0.61858
1317.20952	0.61877
1315.28096	0.61854
1313.35239	0.61813
1311.42383	0.61753
1309.49526	0.61670
1307.56670	0.61590
1305.63813	0.61519
1303.70957	0.61448
1301.78101	0.61381
1299.85244	0.61307
1297.92388	0.61206
1295.99531	0.61082
1294.06675	0.60955
1292.13818	0.60823
1290.20962	0.60686
1288.28105	0.60557
1286.35249	0.60428
1284.42393	0.60294
1282.49536	0.60155
1280.56680	0.60016
1278.63823	0.59884
1276.70967	0.59755
1274.78110	0.59633
1272.85254	0.59541
1270.92397	0.59468
1268.99541	0.59388
1267.06685	0.59305
1265.13828	0.59218
1263.20972	0.59123
1261.28115	0.59041
1259.35259	0.58984
1257.42402	0.58927
1255.49546	0.58860
1253.56689	0.58828
1251.63833	0.58857
1249.70977	0.58897
1247.78120	0.58888
1245.85264	0.58836
1243.92407	0.58773
1241.99551	0.58700
1240.06694	0.58583
1238.13838	0.58417
1236.20981	0.58219
1234.28125	0.58002
1232.35269	0.57790
1230.42412	0.57580
1228.49556	0.57376
1226.56699	0.57200
1224.63843	0.57036
1222.70986	0.56858
1220.78130	0.56689
1218.85273	0.56551
1216.92417	0.56427
1214.99561	0.56307
1213.06704	0.56202
1211.13848	0.56122
1209.20991	0.56061
1207.28135	0.55994
1205.35278	0.55911
1203.42422	0.55817
1201.49565	0.55713
1199.56709	0.55616
1197.63853	0.55534
1195.70996	0.55457
1193.78140	0.55384
1191.85283	0.55328
1189.92427	0.55286
1187.99570	0.55257
1186.06714	0.55244
1184.13857	0.55251
1182.21001	0.55285
1180.28145	0.55364
1178.35288	0.55481
1176.42432	0.55599
1174.49575	0.55703
1172.56719	0.55798
1170.63862	0.55865
1168.71006	0.55877
1166.78149	0.55845
1164.85293	0.55807
1162.92437	0.55781
1160.99580	0.55742
1159.06724	0.55665
1157.13867	0.55566
1155.21011	0.55450
1153.28154	0.55306
1151.35298	0.55131
1149.42441	0.54922
1147.49585	0.54683
1145.56729	0.54431
1143.63872	0.54175
1141.71016	0.53920
1139.78159	0.53685
1137.85303	0.53487
1135.92446	0.53333
1133.99590	0.53224
1132.06733	0.53148
1130.13877	0.53087
1128.21021	0.53023
1126.28164	0.52942
1124.35308	0.52852
1122.42451	0.52760
1120.49595	0.52671
1118.56738	0.52605
1116.63882	0.52563
1114.71025	0.52517
1112.78169	0.52481
1110.85312	0.52503
1108.92456	0.52587
1106.99600	0.52690
1105.06743	0.52799
1103.13887	0.52924
1101.21030	0.53070
1099.28174	0.53259
1097.35317	0.53505
1095.42461	0.53790
1093.49604	0.54132
1091.56748	0.54550
1089.63892	0.55020
1087.71035	0.55532
1085.78179	0.56109
1083.85322	0.56752
1081.92466	0.57398
1079.99609	0.57926
1078.06753	0.58256
1076.13896	0.58351
1074.21040	0.58155
1072.28184	0.57677
1070.35327	0.57047
1068.42471	0.56373
1066.49614	0.55687
1064.56758	0.55040
1062.63901	0.54483
1060.71045	0.53990
1058.78188	0.53517
1056.85332	0.53086
1054.92476	0.52731
1052.99619	0.52436
1051.06763	0.52171
1049.13906	0.51924
1047.21050	0.51703
1045.28193	0.51527
1043.35337	0.51383
1041.42480	0.51268
1039.49624	0.51170
1037.56768	0.51054
1035.63911	0.50946
1033.71055	0.50900
1031.78198	0.50895
1029.85342	0.50868
1027.92485	0.50814
1025.99629	0.50787
1024.06772	0.50813
1022.13916	0.50874
1020.21060	0.50951
1018.28203	0.51019
1016.35347	0.51079
1014.42490	0.51148
1012.49634	0.51240
1010.56777	0.51356
1008.63921	0.51479
1006.71064	0.51606
1004.78208	0.51773
1002.85352	0.51997
1000.92495	0.52266
998.99639	0.52583
997.06782	0.52955
995.13926	0.53370
993.21069	0.53769
991.28213	0.54090
989.35356	0.54335
987.42500	0.54527
985.49644	0.54652
983.56787	0.54708
981.63931	0.54749
979.71074	0.54853
977.78218	0.55038
975.85361	0.55266
973.92505	0.55518
971.99648	0.55811
970.06792	0.56153
968.13936	0.56534
966.21079	0.56952
964.28223	0.57407
962.35366	0.57888
960.42510	0.58396
958.49653	0.58933
956.56797	0.59485
954.63940	0.60064
952.71084	0.60679
950.78228	0.61318
948.85371	0.61963
946.92515	0.62600
944.99658	0.63240
943.06802	0.63881
941.13945	0.64509
939.21089	0.65113
937.28232	0.65680
935.35376	0.66235
933.42520	0.66808
931.49663	0.67370
929.56807	0.67948
927.63950	0.68600
925.71094	0.69256
923.78237	0.69864
921.85381	0.70484
919.92524	0.71133
917.99668	0.71822
916.06812	0.72609
914.13955	0.73436
912.21099	0.74201
910.28242	0.74966
908.35386	0.75838
906.42529	0.76795
904.49673	0.77714
902.56816	0.78536
900.63960	0.79379
898.71104	0.80330
896.78247	0.81325
894.85391	0.82358
892.92534	0.83430
890.99678	0.84455
889.06821	0.85523
887.13965	0.86722
885.21108	0.87908
883.28252	0.88973
881.35396	0.89999
879.42539	0.91184
877.49683	0.92427
875.56826	0.93399
873.63970	0.94229
871.71113	0.95353
869.78257	0.96714
867.85400	0.97930
865.92544	0.99011
863.99687	1.00179
862.06831	1.01385
860.13975	1.02470
858.21118	1.03563
856.28262	1.04738
854.35405	1.05911
852.42549	1.07192
850.49692	1.08558
848.56836	1.09919
846.63979	1.11323
844.71123	1.12558
842.78267	1.13395
840.85410	1.14187
838.92554	1.15345
836.99697	1.16744
835.06841	1.17962
833.13984	1.18919
831.21128	1.20071
829.28271	1.21500
827.35415	1.22843
825.42559	1.23968
823.49702	1.24751
821.56846	1.25225
819.63989	1.26157
817.71133	1.27531
815.78276	1.28023
813.85420	1.27978
811.92563	1.29671
809.99707	1.33747
808.06851	1.37039
806.13994	1.36985
804.21138	1.35482
802.28281	1.33156
800.35425	1.30296
798.42568	1.29832
796.49712	1.32989
794.56855	1.36121
792.63999	1.35595
790.71143	1.34691
788.78286	1.35290
786.85430	1.35762
784.92573	1.38438
782.99717	1.41294
781.06860	1.37890
779.14004	1.34332
777.21147	1.38149
775.28291	1.46373
773.35435	1.48424
771.42578	1.46398
769.49722	1.49379
767.56865	1.52649
765.64009	1.42761
763.71152	1.31595
761.78296	1.29124
759.85439	1.32025
757.92583	1.35249
755.99727	1.34137
754.06870	1.28763
752.14014	1.23399
750.21157	1.21907
748.28301	1.22797
746.35444	1.17642
744.42588	1.13226
742.49731	1.18572
740.56875	1.20393
738.64019	1.19096
736.71162	1.41937
734.78306	1.51641
732.85449	1.06788
730.92593	0.87028
728.99736	0.74049
727.06880	0.63564
725.14023	0.71031
723.21167	0.91099
721.28311	0.66444
719.35454	0.49192
717.42598	0.55746
715.49741	1.05982
713.56885	4.28141
711.64028	1.06062
709.71172	0.57969
707.78315	0.50089
705.85459	0.34547
703.92603	0.23358
701.99746	0.19298
700.06890	0.16718
698.14033	0.19513
696.21177	0.37493
694.28320	0.75747
692.35464	0.43374
690.42607	0.23162
688.49751	0.28708
686.56895	0.54148
684.64038	0.47008
682.71182	0.38520
680.78325	0.38052
678.85469	0.26268
676.92612	0.17966
674.99756	0.21658
673.06899	0.25117
671.14043	0.20352
669.21187	0.22460
667.28330	0.30404
665.35474	0.25365
663.42617	0.20595
661.49761	0.48367
659.56904	1.60221
657.64048	0.68572
655.71191	0.37742
653.78335	0.27423
651.85479	0.19881
649.92622	0.12072
647.99766	0.19800
646.06909	0.44913
644.14053	0.39213
642.21196	0.25114
640.28340	0.24953
638.35483	0.27083
636.42627	0.20104
634.49771	0.11448
632.56914	0.06383
630.64058	0.00130
628.71201	-0.01406
626.78345	0.08278
624.85488	0.19686
622.92632	0.26830
620.99775	0.29799
619.06919	0.36892
617.14062	0.49354
615.21206	0.60200
613.28350	0.49280
611.35493	0.25648
609.42637	0.10910
607.49780	0.09500
605.56924	0.14748
603.64067	0.09984
601.71211	0.03576
599.78354	0.05311
597.85498	0.07457
595.92642	0.13610
593.99785	0.21828
592.06929	0.25405
590.14072	0.22145
588.21216	0.18397
586.28359	0.17107
584.35503	0.15495
582.42646	0.15960
580.49790	0.25549
578.56934	0.68589
576.64077	3.45984
574.71221	3.44827
572.78364	0.54313
570.85508	0.42952
568.92651	0.47489
566.99795	0.48653
565.06938	0.44661
563.14082	0.30989
561.21226	0.18538
559.28369	0.15888
557.35513	0.23059
555.42656	0.35008
553.49800	0.52153
551.56943	0.59850
549.64087	0.34952
547.71230	0.24227
545.78374	0.20423
543.85518	0.14371
541.92661	0.11698
539.99805	0.14016
538.06948	0.17845
536.14092	0.22817
534.21235	0.25244
532.28379	0.22827
530.35522	0.19328
528.42666	0.17056
526.49810	0.20725
524.56953	0.27533
522.64097	0.24675
520.71240	0.13677
518.78384	0.09156
516.85527	0.10592
514.92671	0.11613
512.99814	0.16442
511.06958	0.22440
509.14102	0.19061
507.21245	0.12599
505.28389	0.11004
503.35532	0.14545
501.42676	0.21283
499.49819	0.24158
