3997.91411	0.05899
3995.98555	0.05964
3994.05698	0.06083
3992.12842	0.06165
3990.19985	0.06194
3988.27129	0.06176
3986.34272	0.06144
3984.41416	0.06162
3982.48560	0.06192
3980.55703	0.06188
3978.62847	0.06211
3976.69990	0.06313
3974.77134	0.06419
3972.84277	0.06447
3970.91421	0.06429
3968.98564	0.06417
3967.05708	0.06411
3965.12852	0.06411
3963.19995	0.06432
3961.27139	0.06477
3959.34282	0.06499
3957.41426	0.06498
3955.48569	0.06520
3953.55713	0.06576
3951.62856	0.06692
3949.70000	0.06865
3947.77144	0.06956
3945.84287	0.06895
3943.91431	0.06871
3941.98574	0.06915
3940.05718	0.06808
3938.12861	0.06628
3936.20005	0.06585
3934.27148	0.06713
3932.34292	0.06950
3930.41436	0.07087
3928.48579	0.06985
3926.55723	0.06875
3924.62866	0.06956
3922.70010	0.07009
3920.77153	0.06909
3918.84297	0.06910
3916.91440	0.06998
3914.98584	0.06879
3913.05728	0.06594
3911.12871	0.06409
3909.20015	0.06396
3907.27158	0.06583
3905.34302	0.07088
3903.41445	0.07770
3901.48589	0.08141
3899.55732	0.08031
3897.62876	0.07570
3895.70020	0.07048
3893.77163	0.06892
3891.84307	0.07139
3889.91450	0.07282
3887.98594	0.07140
3886.05737	0.07211
3884.12881	0.07485
3882.20024	0.07604
3880.27168	0.07620
3878.34312	0.07403
3876.41455	0.07091
3874.48599	0.07163
3872.55742	0.07600
3870.62886	0.08077
3868.70029	0.08267
3866.77173	0.08073
3864.84316	0.08030
3862.91460	0.08156
3860.98604	0.07918
3859.05747	0.07573
3857.12891	0.07621
3855.20034	0.08132
3853.27178	0.09022
3851.34321	0.09286
3849.41465	0.08484
3847.48608	0.07790
3845.55752	0.07594
3843.62896	0.07865
3841.70039	0.08401
3839.77183	0.09017
3837.84326	0.09506
3835.91470	0.09439
3833.98613	0.09002
3832.05757	0.08679
3830.12900	0.08501
3828.20044	0.08426
3826.27187	0.08498
3824.34331	0.08688
3822.41475	0.09136
3820.48618	0.09852
3818.55762	0.10037
3816.62905	0.09748
3814.70049	0.09452
3812.77192	0.09041
3810.84336	0.08783
3808.91479	0.08933
3806.98623	0.09448
3805.05767	0.09921
3803.12910	0.10255
3801.20054	0.10747
3799.27197	0.10880
3797.34341	0.10546
3795.41484	0.10263
3793.48628	0.09972
3791.55771	0.09753
3789.62915	0.09765
3787.70059	0.09945
3785.77202	0.10252
3783.84346	0.10576
3781.91489	0.10776
3779.98633	0.10986
3778.05776	0.11171
3776.12920	0.11100
3774.20063	0.11015
3772.27207	0.11210
3770.34351	0.11711
3768.41494	0.12247
3766.48638	0.12513
3764.55781	0.12614
3762.62925	0.12672
3760.70068	0.12902
3758.77212	0.13448
3756.84355	0.13935
3754.91499	0.14167
3752.98643	0.14638
3751.05786	0.15687
3749.12930	0.16592
3747.20073	0.16624
3745.27217	0.16635
3743.34360	0.16938
3741.41504	0.17111
3739.48647	0.17313
3737.55791	0.17954
3735.62935	0.19157
3733.70078	0.20205
3731.77222	0.20228
3729.84365	0.19932
3727.91509	0.20072
3725.98652	0.20731
3724.05796	0.21538
3722.12939	0.22106
3720.20083	0.22466
3718.27227	0.22753
3716.34370	0.23137
3714.41514	0.23834
3712.48657	0.25158
3710.55801	0.27096
3708.62944	0.28508
3706.70088	0.29151
3704.77231	0.29946
3702.84375	0.31274
3700.91519	0.33056
3698.98662	0.34789
3697.05806	0.36357
3695.12949	0.38139
3693.20093	0.40203
3691.27236	0.42702
3689.34380	0.45944
3687.41523	0.49278
3685.48667	0.51693
3683.55811	0.53814
3681.62954	0.56424
3679.70098	0.59720
3677.77241	0.63476
3675.84385	0.67964
3673.91528	0.73343
3671.98672	0.77327
3670.05815	0.81093
3668.12959	0.86161
3666.20103	0.90391
3664.27246	0.93978
3662.34390	0.98131
3660.41533	1.02810
3658.48677	1.07557
3656.55820	1.12669
3654.62964	1.18228
3652.70107	1.22933
3650.77251	1.27480
3648.84395	1.33871
3646.91538	1.40648
3644.98682	1.44859
3643.05825	1.48164
3641.12969	1.51874
3639.20112	1.56123
3637.27256	1.60525
3635.34399	1.64965
3633.41543	1.69494
3631.48687	1.73829
3629.55830	1.78452
3627.62974	1.84255
3625.70117	1.88976
3623.77261	1.91964
3621.84404	1.95164
3619.91548	1.99151
3617.98691	2.03872
3616.05835	2.08162
3614.12979	2.11802
3612.20122	2.15681
3610.27266	2.19431
3608.34409	2.23240
3606.41553	2.27395
3604.48696	2.31250
3602.55840	2.34844
3600.62983	2.38865
3598.70127	2.43144
3596.77271	2.47291
3594.84414	2.51522
3592.91558	2.55610
3590.98701	2.59264
3589.05845	2.63013
3587.12988	2.67758
3585.20132	2.72563
3583.27275	2.76282
3581.34419	2.79788
3579.41562	2.83697
3577.48706	2.87883
3575.55850	2.92127
3573.62993	2.96449
3571.70137	3.00694
3569.77280	3.04984
3567.84424	3.09798
3565.91567	3.15407
3563.98711	3.20272
3562.05854	3.24027
3560.12998	3.27960
3558.20142	3.32141
3556.27285	3.36386
3554.34429	3.40973
3552.41572	3.46001
3550.48716	3.50794
3548.55859	3.55101
3546.63003	3.59551
3544.70146	3.64436
3542.77290	3.69333
3540.84434	3.74080
3538.91577	3.78793
3536.98721	3.83432
3535.05864	3.88177
3533.13008	3.93021
3531.20151	3.97922
3529.27295	4.02781
3527.34438	4.07777
3525.41582	4.12987
3523.48726	4.18227
3521.55869	4.23447
3519.63013	4.28309
3517.70156	4.32952
3515.77300	4.37458
3513.84443	4.41828
3511.91587	4.46405
3509.98730	4.51398
3508.05874	4.56475
3506.13018	4.61124
3504.20161	4.65824
3502.27305	4.70978
3500.34448	4.75836
3498.41592	4.80196
3496.48735	4.84995
3494.55879	4.90369
3492.63022	4.95543
3490.70166	5.00529
3488.77310	5.05333
3486.84453	5.09508
3484.91597	5.13809
3482.98740	5.18924
3481.05884	5.24023
3479.13027	5.28792
3477.20171	5.34049
3475.27314	5.39099
3473.34458	5.43316
3471.41602	5.47710
3469.48745	5.52192
3467.55889	5.56397
3465.63032	5.60818
3463.70176	5.65773
3461.77319	5.71135
3459.84463	5.76278
3457.91606	5.80272
3455.98750	5.83743
3454.05894	5.87963
3452.13037	5.93783
3450.20181	6.01441
3448.27324	6.07980
3446.34468	6.11351
3444.41611	6.14895
3442.48755	6.21111
3440.55898	6.26766
3438.63042	6.30542
3436.70186	6.35483
3434.77329	6.41896
3432.84473	6.47817
3430.91616	6.53137
3428.98760	6.57872
3427.05903	6.60761
3425.13047	6.65154
3423.20190	6.72904
3421.27334	6.79786
3419.34478	6.85233
3417.41621	6.92274
3415.48765	6.98200
3413.55908	6.99814
3411.63052	6.99888
3409.70195	7.01787
3407.77339	7.07418
3405.84482	7.12896
3403.91626	7.16455
3401.98770	7.21383
3400.05913	7.28014
3398.13057	7.34013
3396.20200	7.35746
3394.27344	7.35545
3392.34487	7.37869
3390.41631	7.42790
3388.48774	7.48248
3386.55918	7.55395
3384.63062	7.64125
3382.70205	7.69775
3380.77349	7.68692
3378.84492	7.63531
3376.91636	7.62514
3374.98779	7.69299
3373.05923	7.80103
3371.13066	7.87245
3369.20210	7.88107
3367.27354	7.83165
3365.34497	7.79268
3363.41641	7.84588
3361.48784	7.93430
3359.55928	7.95066
3357.63071	7.93533
3355.70215	7.98612
3353.77358	8.04177
3351.84502	8.04828
3349.91646	8.05640
3347.98789	8.10241
3346.05933	8.14972
3344.13076	8.13341
3342.20220	8.04963
3340.27363	7.94123
3338.34507	7.87885
3336.41650	7.88724
3334.48794	7.95958
3332.55937	8.07324
3330.63081	8.21082
3328.70225	8.26102
3326.77368	8.15787
3324.84512	8.08539
3322.91655	8.15317
3320.98799	8.27834
3319.05942	8.31216
3317.13086	8.24633
3315.20229	8.15515
3313.27373	8.13937
3311.34517	8.17613
3309.41660	8.12132
3307.48804	8.02619
3305.55947	7.99349
3303.63091	8.01090
3301.70234	8.04699
3299.77378	8.10096
3297.84521	8.13684
3295.91665	8.14431
3293.98809	8.14695
3292.05952	8.16667
3290.13096	8.21826
3288.20239	8.25204
3286.27383	8.22784
3284.34526	8.15228
3282.41670	8.09412
3280.48813	8.14757
3278.55957	8.32875
3276.63101	8.46929
3274.70244	8.41269
3272.77388	8.27945
3270.84531	8.22992
3268.91675	8.28782
3266.98818	8.32058
3265.05962	8.24208
3263.13105	8.14365
3261.20249	8.13192
3259.27393	8.17070
3257.34536	8.19107
3255.41680	8.25612
3253.48823	8.30857
3251.55967	8.20537
3249.63110	8.08395
3247.70254	8.11800
3245.77397	8.28131
3243.84541	8.38512
3241.91685	8.32628
3239.98828	8.25535
3238.05972	8.25252
3236.13115	8.26943
3234.20259	8.26842
3232.27402	8.21957
3230.34546	8.17758
3228.41689	8.20040
3226.48833	8.18205
3224.55977	8.10511
3222.63120	8.08470
3220.70264	8.10720
3218.77407	8.12687
3216.84551	8.16350
3214.91694	8.22778
3212.98838	8.21746
3211.05981	8.09243
3209.13125	7.99981
3207.20269	7.99318
3205.27412	8.00646
3203.34556	7.96253
3201.41699	7.88173
3199.48843	7.84858
3197.55986	7.83686
3195.63130	7.78625
3193.70273	7.74955
3191.77417	7.75678
3189.84561	7.74211
3187.91704	7.68744
3185.98848	7.64456
3184.05991	7.59655
3182.13135	7.49592
3180.20278	7.39238
3178.27422	7.32600
3176.34565	7.27410
3174.41709	7.23826
3172.48853	7.21203
3170.55996	7.15488
3168.63140	7.07243
3166.70283	7.00097
3164.77427	6.95099
3162.84570	6.91288
3160.91714	6.86853
3158.98857	6.80231
3157.06001	6.72648
3155.13145	6.66984
3153.20288	6.61671
3151.27432	6.54146
3149.34575	6.45478
3147.41719	6.37945
3145.48862	6.32102
3143.56006	6.25936
3141.63149	6.19137
3139.70293	6.12278
3137.77437	6.04550
3135.84580	5.96103
3133.91724	5.87793
3131.98867	5.80135
3130.06011	5.73983
3128.13154	5.68905
3126.20298	5.62419
3124.27441	5.53861
3122.34585	5.45634
3120.41729	5.39198
3118.48872	5.32707
3116.56016	5.25097
3114.63159	5.17601
3112.70303	5.10682
3110.77446	5.03888
3108.84590	4.96969
3106.91733	4.90185
3104.98877	4.83499
3103.06021	4.76714
3101.13164	4.69885
3099.20308	4.63254
3097.27451	4.56959
3095.34595	4.50624
3093.41738	4.44264
3091.48882	4.38135
3089.56025	4.31667
3087.63169	4.24646
3085.70312	4.17739
3083.77456	4.11160
3081.84600	4.05001
3079.91743	3.99245
3077.98887	3.93337
3076.06030	3.87192
3074.13174	3.81152
3072.20317	3.75275
3070.27461	3.69430
3068.34604	3.63614
3066.41748	3.57879
3064.48892	3.52221
3062.56035	3.46522
3060.63179	3.40797
3058.70322	3.35310
3056.77466	3.29966
3054.84609	3.24519
3052.91753	3.19108
3050.98896	3.13936
3049.06040	3.08993
3047.13184	3.04078
3045.20327	2.98993
3043.27471	2.93830
3041.34614	2.88852
3039.41758	2.84050
3037.48901	2.79269
3035.56045	2.74554
3033.63188	2.69954
3031.70332	2.65371
3029.77476	2.60739
3027.84619	2.56131
3025.91763	2.51693
3023.98906	2.47449
3022.06050	2.43298
3020.13193	2.39163
3018.20337	2.34995
3016.27480	2.30788
3014.34624	2.26652
3012.41768	2.22676
3010.48911	2.18801
3008.56055	2.14994
3006.63198	2.11274
3004.70342	2.07630
3002.77485	2.04055
3000.84629	2.00521
2998.91772	1.97035
2996.98916	1.93665
2995.06060	1.90421
2993.13203	1.87210
2991.20347	1.83992
2989.27490	1.80885
2987.34634	1.77914
2985.41777	1.74935
2983.48921	1.71939
2981.56064	1.69045
2979.63208	1.66259
2977.70352	1.63504
2975.77495	1.60780
2973.84639	1.58134
2971.91782	1.55561
2969.98926	1.52997
2968.06069	1.50411
2966.13213	1.47866
2964.20356	1.45401
2962.27500	1.42975
2960.34644	1.40532
2958.41787	1.38068
2956.48931	1.35638
2954.56074	1.33231
2952.63218	1.30811
2950.70361	1.28432
2948.77505	1.26137
2946.84648	1.23913
2944.91792	1.21713
2942.98936	1.19521
2941.06079	1.17406
2939.13223	1.15363
2937.20366	1.13302
2935.27510	1.11198
2933.34653	1.09112
2931.41797	1.07078
2929.48940	1.05046
2927.56084	1.03000
2925.63228	1.00950
2923.70371	0.98884
2921.77515	0.96839
2919.84658	0.94859
2917.91802	0.92886
2915.98945	0.90959
2914.06089	0.89317
2912.13232	0.88016
2910.20376	0.86831
2908.27520	0.85577
2906.34663	0.84231
2904.41807	0.82849
2902.48950	0.81492
2900.56094	0.80168
2898.63237	0.78856
2896.70381	0.77533
2894.77524	0.76229
2892.84668	0.74983
2890.91812	0.73793
2888.98955	0.72664
2887.06099	0.71563
2885.13242	0.70468
2883.20386	0.69401
2881.27529	0.68368
2879.34673	0.67371
2877.41816	0.66390
2875.48960	0.65382
2873.56104	0.64337
2871.63247	0.63268
2869.70391	0.62158
2867.77534	0.60994
2865.84678	0.59797
2863.91821	0.58587
2861.98965	0.57385
2860.06108	0.56225
2858.13252	0.55115
2856.20396	0.54024
2854.27539	0.52920
2852.34683	0.51765
2850.41826	0.50590
2848.48970	0.49583
2846.56113	0.48909
2844.63257	0.48473
2842.70400	0.48049
2840.77544	0.47526
2838.84687	0.46952
2836.91831	0.46393
2834.98975	0.45848
2833.06118	0.45281
2831.13262	0.44674
2829.20405	0.44039
2827.27549	0.43411
2825.34692	0.42801
2823.41836	0.42188
2821.48979	0.41567
2819.56123	0.40943
2817.63267	0.40327
2815.70410	0.39744
2813.77554	0.39187
2811.84697	0.38632
2809.91841	0.38082
2807.98984	0.37538
2806.06128	0.36996
2804.13271	0.36454
2802.20415	0.35920
2800.27559	0.35403
2798.34702	0.34901
2796.41846	0.34417
2794.48989	0.33953
2792.56133	0.33477
2790.63276	0.32994
2788.70420	0.32536
2786.77563	0.32093
2784.84707	0.31653
2782.91851	0.31226
2780.98994	0.30805
2779.06138	0.30393
2777.13281	0.30002
2775.20425	0.29622
2773.27568	0.29227
2771.34712	0.28813
2769.41855	0.28406
2767.48999	0.28032
2765.56143	0.27694
2763.63286	0.27372
2761.70430	0.27044
2759.77573	0.26693
2757.84717	0.26331
2755.91860	0.25990
2753.99004	0.25677
2752.06147	0.25364
2750.13291	0.25060
2748.20435	0.24782
2746.27578	0.24500
2744.34722	0.24204
2742.41865	0.23925
2740.49009	0.23668
2738.56152	0.23413
2736.63296	0.23139
2734.70439	0.22862
2732.77583	0.22615
2730.84727	0.22386
2728.91870	0.22156
2726.99014	0.21925
2725.06157	0.21690
2723.13301	0.21456
2721.20444	0.21230
2719.27588	0.21020
2717.34731	0.20824
2715.41875	0.20630
2713.49019	0.20436
2711.56162	0.20243
2709.63306	0.20055
2707.70449	0.19879
2705.77593	0.19711
2703.84736	0.19554
2701.91880	0.19405
2699.99023	0.19257
2698.06167	0.19112
2696.13311	0.18964
2694.20454	0.18803
2692.27598	0.18637
2690.34741	0.18480
2688.41885	0.18336
2686.49028	0.18214
2684.56172	0.18106
2682.63315	0.17994
2680.70459	0.17870
2678.77603	0.17736
2676.84746	0.17594
2674.91890	0.17474
2672.99033	0.17384
2671.06177	0.17287
2669.13320	0.17177
2667.20464	0.17076
2665.27607	0.16979
2663.34751	0.16882
2661.41895	0.16793
2659.49038	0.16710
2657.56182	0.16622
2655.63325	0.16530
2653.70469	0.16451
2651.77612	0.16383
2649.84756	0.16315
2647.91899	0.16259
2645.99043	0.16198
2644.06187	0.16114
2642.13330	0.16033
2640.20474	0.15978
2638.27617	0.15939
2636.34761	0.15894
2634.41904	0.15847
2632.49048	0.15815
2630.56191	0.15780
2628.63335	0.15726
2626.70479	0.15671
2624.77622	0.15631
2622.84766	0.15601
2620.91909	0.15571
2618.99053	0.15545
2617.06196	0.15530
2615.13340	0.15532
2613.20483	0.15525
2611.27627	0.15495
2609.34771	0.15468
2607.41914	0.15454
2605.49058	0.15437
2603.56201	0.15415
2601.63345	0.15402
2599.70488	0.15405
2597.77632	0.15420
2595.84775	0.15434
2593.91919	0.15438
2591.99062	0.15440
2590.06206	0.15450
2588.13350	0.15475
2586.20493	0.15510
2584.27637	0.15546
2582.34780	0.15571
2580.41924	0.15592
2578.49067	0.15610
2576.56211	0.15618
2574.63354	0.15634
2572.70498	0.15678
2570.77642	0.15729
2568.84785	0.15763
2566.91929	0.15801
2564.99072	0.15853
2563.06216	0.15902
2561.13359	0.15937
2559.20503	0.15971
2557.27646	0.16014
2555.34790	0.16063
2553.41934	0.16111
2551.49077	0.16164
2549.56221	0.16221
2547.63364	0.16270
2545.70508	0.16325
2543.77651	0.16393
2541.84795	0.16460
2539.91938	0.16521
2537.99082	0.16580
2536.06226	0.16634
2534.13369	0.16697
2532.20513	0.16782
2530.27656	0.16873
2528.34800	0.16954
2526.41943	0.17024
2524.49087	0.17082
2522.56230	0.17141
2520.63374	0.17219
2518.70518	0.17305
2516.77661	0.17389
2514.84805	0.17474
2512.91948	0.17551
2510.99092	0.17623
2509.06235	0.17698
2507.13379	0.17776
2505.20522	0.17863
2503.27666	0.17959
2501.34810	0.18043
2499.41953	0.18109
2497.49097	0.18179
2495.56240	0.18263
2493.63384	0.18346
2491.70527	0.18426
2489.77671	0.18519
2487.84814	0.18625
2485.91958	0.18731
2483.99102	0.18823
2482.06245	0.18901
2480.13389	0.18987
2478.20532	0.19085
2476.27676	0.19177
2474.34819	0.19259
2472.41963	0.19335
2470.49106	0.19416
2468.56250	0.19508
2466.63394	0.19601
2464.70537	0.19690
2462.77681	0.19789
2460.84824	0.19899
2458.91968	0.20001
2456.99111	0.20092
2455.06255	0.20184
2453.13398	0.20282
2451.20542	0.20384
2449.27686	0.20493
2447.34829	0.20597
2445.41973	0.20690
2443.49116	0.20784
2441.56260	0.20888
2439.63403	0.20996
2437.70547	0.21100
2435.77690	0.21202
2433.84834	0.21301
2431.91978	0.21399
2429.99121	0.21511
2428.06265	0.21628
2426.13408	0.21738
2424.20552	0.21851
2422.27695	0.21974
2420.34839	0.22095
2418.41982	0.22203
2416.49126	0.22307
2414.56270	0.22418
2412.63413	0.22540
2410.70557	0.22658
2408.77700	0.22769
2406.84844	0.22895
2404.91987	0.23031
2402.99131	0.23149
2401.06274	0.23256
2399.13418	0.23374
2397.20562	0.23505
2395.27705	0.23643
2393.34849	0.23779
2391.41992	0.23913
2389.49136	0.24076
2387.56279	0.24305
2385.63423	0.24633
2383.70566	0.25099
2381.77710	0.25730
2379.84854	0.26511
2377.91997	0.27416
2375.99141	0.28450
2374.06284	0.29629
2372.13428	0.30960
2370.20571	0.32437
2368.27715	0.34004
2366.34858	0.35519
2364.42002	0.36794
2362.49146	0.37688
2360.56289	0.38161
2358.63433	0.38294
2356.70576	0.37985
2354.77720	0.37027
2352.84863	0.35627
2350.92007	0.34185
2348.99150	0.33289
2347.06294	0.33319
2345.13437	0.34331
2343.20581	0.35737
2341.27725	0.36525
2339.34868	0.36685
2337.42012	0.36669
2335.49155	0.36601
2333.56299	0.36480
2331.63442	0.36394
2329.70586	0.36324
2327.77729	0.36176
2325.84873	0.35919
2323.92017	0.35620
2321.99160	0.35300
2320.06304	0.34887
2318.13447	0.34418
2316.20591	0.34027
2314.27734	0.33788
2312.34878	0.33677
2310.42021	0.33603
2308.49165	0.33471
2306.56309	0.33276
2304.63452	0.33102
2302.70596	0.33019
2300.77739	0.33011
2298.84883	0.33021
2296.92026	0.33040
2294.99170	0.33069
2293.06313	0.33090
2291.13457	0.33112
2289.20601	0.33157
2287.27744	0.33218
2285.34888	0.33290
2283.42031	0.33402
2281.49175	0.33585
2279.56318	0.33818
2277.63462	0.34069
2275.70605	0.34323
2273.77749	0.34553
2271.84893	0.34755
2269.92036	0.34954
2267.99180	0.35164
2266.06323	0.35381
2264.13467	0.35590
2262.20610	0.35778
2260.27754	0.35953
2258.34897	0.36131
2256.42041	0.36320
2254.49185	0.36524
2252.56328	0.36732
2250.63472	0.36936
2248.70615	0.37141
2246.77759	0.37351
2244.84902	0.37560
2242.92046	0.37764
2240.99189	0.37971
2239.06333	0.38192
2237.13477	0.38421
2235.20620	0.38639
2233.27764	0.38861
2231.34907	0.39101
2229.42051	0.39340
2227.49194	0.39557
2225.56338	0.39766
2223.63481	0.39984
2221.70625	0.40209
2219.77769	0.40437
2217.84912	0.40662
2215.92056	0.40881
2213.99199	0.41107
2212.06343	0.41343
2210.13486	0.41569
2208.20630	0.41781
2206.27773	0.41987
2204.34917	0.42189
2202.42061	0.42387
2200.49204	0.42584
2198.56348	0.42782
2196.63491	0.42982
2194.70635	0.43201
2192.77778	0.43426
2190.84922	0.43626
2188.92065	0.43804
2186.99209	0.43979
2185.06353	0.44149
2183.13496	0.44322
2181.20640	0.44498
2179.27783	0.44664
2177.34927	0.44816
2175.42070	0.44962
2173.49214	0.45116
2171.56357	0.45279
2169.63501	0.45434
2167.70645	0.45569
2165.77788	0.45692
2163.84932	0.45812
2161.92075	0.45920
2159.99219	0.46014
2158.06362	0.46105
2156.13506	0.46210
2154.20649	0.46319
2152.27793	0.46406
2150.34937	0.46468
2148.42080	0.46520
2146.49224	0.46570
2144.56367	0.46614
2142.63511	0.46648
2140.70654	0.46679
2138.77798	0.46710
2136.84941	0.46733
2134.92085	0.46742
2132.99229	0.46739
2131.06372	0.46722
2129.13516	0.46691
2127.20659	0.46663
2125.27803	0.46637
2123.34946	0.46592
2121.42090	0.46527
2119.49233	0.46456
2117.56377	0.46380
2115.63521	0.46299
2113.70664	0.46222
2111.77808	0.46138
2109.84951	0.46035
2107.92095	0.45927
2105.99238	0.45811
2104.06382	0.45682
2102.13525	0.45550
2100.20669	0.45419
2098.27812	0.45281
2096.34956	0.45129
2094.42100	0.44957
2092.49243	0.44778
2090.56387	0.44607
2088.63530	0.44433
2086.70674	0.44243
2084.77817	0.44043
2082.84961	0.43840
2080.92104	0.43629
2078.99248	0.43421
2077.06392	0.43214
2075.13535	0.42988
2073.20679	0.42751
2071.27822	0.42515
2069.34966	0.42278
2067.42109	0.42057
2065.49253	0.41849
2063.56396	0.41609
2061.63540	0.41342
2059.70684	0.41078
2057.77827	0.40813
2055.84971	0.40548
2053.92114	0.40290
2051.99258	0.40025
2050.06401	0.39741
2048.13545	0.39453
2046.20688	0.39186
2044.27832	0.38937
2042.34976	0.38685
2040.42119	0.38411
2038.49263	0.38113
2036.56406	0.37811
2034.63550	0.37516
2032.70693	0.37224
2030.77837	0.36937
2028.84980	0.36657
2026.92124	0.36372
2024.99268	0.36083
2023.06411	0.35808
2021.13555	0.35541
2019.20698	0.35286
2017.27842	0.35039
2015.34985	0.34749
2013.42129	0.34424
2011.49272	0.34119
2009.56416	0.33840
2007.63560	0.33562
2005.70703	0.33286
2003.77847	0.33016
2001.84990	0.32746
1999.92134	0.32476
1997.99277	0.32206
1996.06421	0.31948
1994.13564	0.31741
1992.20708	0.31557
1990.27852	0.31305
1988.34995	0.31002
1986.42139	0.30710
1984.49282	0.30440
1982.56426	0.30195
1980.63569	0.29958
1978.70713	0.29716
1976.77856	0.29483
1974.85000	0.29262
1972.92144	0.29035
1970.99287	0.28816
1969.06431	0.28649
1967.13574	0.28507
1965.20718	0.28300
1963.27861	0.28055
1961.35005	0.27840
1959.42148	0.27641
1957.49292	0.27447
1955.56436	0.27263
1953.63579	0.27083
1951.70723	0.26902
1949.77866	0.26735
1947.85010	0.26596
1945.92153	0.26484
1943.99297	0.26400
1942.06440	0.26297
1940.13584	0.26093
1938.20728	0.25861
1936.27871	0.25689
1934.35015	0.25556
1932.42158	0.25432
1930.49302	0.25304
1928.56445	0.25178
1926.63589	0.25085
1924.70732	0.25060
1922.77876	0.25053
1920.85020	0.24971
1918.92163	0.24879
1916.99307	0.24787
1915.06450	0.24622
1913.13594	0.24476
1911.20737	0.24431
1909.27881	0.24411
1907.35024	0.24327
1905.42168	0.24202
1903.49312	0.24106
1901.56455	0.24044
1899.63599	0.23997
1897.70742	0.23977
1895.77886	0.23988
1893.85029	0.23973
1891.92173	0.23942
1889.99316	0.23967
1888.06460	0.23954
1886.13604	0.23860
1884.20747	0.23783
1882.27891	0.23737
1880.35034	0.23710
1878.42178	0.23708
1876.49321	0.23716
1874.56465	0.23722
1872.63608	0.23772
1870.70752	0.23939
1868.77896	0.24181
1866.85039	0.24213
1864.92183	0.24026
1862.99326	0.23895
1861.06470	0.23883
1859.13613	0.23919
1857.20757	0.23951
1855.27900	0.23982
1853.35044	0.24023
1851.42187	0.24092
1849.49331	0.24211
1847.56475	0.24386
1845.63618	0.24609
1843.70762	0.24784
1841.77905	0.24743
1839.85049	0.24639
1837.92192	0.24666
1835.99336	0.24756
1834.06479	0.24849
1832.13623	0.25031
1830.20767	0.25345
1828.27910	0.25562
1826.35054	0.25609
1824.42197	0.25668
1822.49341	0.25699
1820.56484	0.25733
1818.63628	0.25847
1816.70771	0.26012
1814.77915	0.26187
1812.85059	0.26430
1810.92202	0.26731
1808.99346	0.26945
1807.06489	0.27073
1805.13633	0.27237
1803.20776	0.27520
1801.27920	0.27881
1799.35063	0.28199
1797.42207	0.28424
1795.49351	0.28684
1793.56494	0.29084
1791.63638	0.29542
1789.70781	0.29762
1787.77925	0.29845
1785.85068	0.30098
1783.92212	0.30493
1781.99355	0.30941
1780.06499	0.31407
1778.13643	0.31831
1776.20786	0.32255
1774.27930	0.32838
1772.35073	0.33631
1770.42217	0.34267
1768.49360	0.34617
1766.56504	0.34967
1764.63647	0.35431
1762.70791	0.36079
1760.77935	0.36897
1758.85078	0.37597
1756.92222	0.38291
1754.99365	0.39035
1753.06509	0.39765
1751.13652	0.40792
1749.20796	0.42065
1747.27939	0.43107
1745.35083	0.43903
1743.42227	0.44779
1741.49370	0.45801
1739.56514	0.47027
1737.63657	0.48256
1735.70801	0.49442
1733.77944	0.51300
1731.85088	0.53250
1729.92231	0.54585
1727.99375	0.55966
1726.06519	0.57572
1724.13662	0.59464
1722.20806	0.61545
1720.27949	0.63534
1718.35093	0.66033
1716.42236	0.69561
1714.49380	0.72490
1712.56523	0.74695
1710.63667	0.76974
1708.70811	0.79608
1706.77954	0.82733
1704.85098	0.86414
1702.92241	0.89596
1700.99385	0.92815
1699.06528	0.97699
1697.13672	1.02050
1695.20815	1.06256
1693.27959	1.10328
1691.35103	1.13732
1689.42246	1.17826
1687.49390	1.22242
1685.56533	1.26659
1683.63677	1.33329
1681.70820	1.39800
1679.77964	1.43716
1677.85107	1.47592
1675.92251	1.52267
1673.99395	1.58143
1672.06538	1.63395
1670.13682	1.68519
1668.20825	1.75005
1666.27969	1.80175
1664.35112	1.84749
1662.42256	1.90711
1660.49399	1.97438
1658.56543	2.02661
1656.63687	2.06985
1654.70830	2.11106
1652.77974	2.17296
1650.85117	2.22654
1648.92261	2.24444
1646.99404	2.26980
1645.06548	2.29310
1643.13691	2.30636
1641.20835	2.31433
1639.27979	2.32430
1637.35122	2.33261
1635.42266	2.32975
1633.49409	2.31359
1631.56553	2.29538
1629.63696	2.27766
1627.70840	2.25038
1625.77983	2.21947
1623.85127	2.17912
1621.92271	2.12703
1619.99414	2.08020
1618.06558	2.03631
1616.13701	1.97248
1614.20845	1.90419
1612.27988	1.85243
1610.35132	1.80135
1608.42275	1.74716
1606.49419	1.69284
1604.56562	1.64209
1602.63706	1.59325
1600.70850	1.54570
1598.77993	1.50209
1596.85137	1.46179
1594.92280	1.42262
1592.99424	1.38411
1591.06567	1.34907
1589.13711	1.31699
1587.20854	1.28752
1585.27998	1.26063
1583.35142	1.23582
1581.42285	1.21301
1579.49429	1.19395
1577.56572	1.17871
1575.63716	1.16057
1573.70859	1.14206
1571.78003	1.12964
1569.85146	1.11887
1567.92290	1.10680
1565.99434	1.09723
1564.06577	1.09086
1562.13721	1.08719
1560.20864	1.08795
1558.28008	1.09249
1556.35151	1.09187
1554.42295	1.08914
1552.49438	1.08801
1550.56582	1.08667
1548.63726	1.08274
1546.70869	1.07689
1544.78013	1.07030
1542.85156	1.06223
1540.92300	1.04825
1538.99443	1.01943
1537.06587	0.99437
1535.13730	0.97887
1533.20874	0.96098
1531.28018	0.94099
1529.35161	0.92632
1527.42305	0.91422
1525.49448	0.90222
1523.56592	0.89182
1521.63735	0.88200
1519.70879	0.87053
1517.78022	0.85979
1515.85166	0.84752
1513.92310	0.83444
1511.99453	0.82406
1510.06597	0.81673
1508.13740	0.81119
1506.20884	0.79790
1504.28027	0.78121
1502.35171	0.77186
1500.42314	0.76582
1498.49458	0.76051
1496.56602	0.75324
1494.63745	0.74428
1492.70889	0.73790
1490.78032	0.73455
1488.85176	0.73041
1486.92319	0.72325
1484.99463	0.71639
1483.06606	0.71185
1481.13750	0.70889
1479.20894	0.70677
1477.28037	0.70606
1475.35181	0.70707
1473.42324	0.70870
1471.49468	0.70735
1469.56611	0.70280
1467.63755	0.69934
1465.70898	0.69804
1463.78042	0.69728
1461.85186	0.69653
1459.92329	0.69767
1457.99473	0.70092
1456.06616	0.70126
1454.13760	0.69678
1452.20903	0.69265
1450.28047	0.68971
1448.35190	0.68750
1446.42334	0.68467
1444.49478	0.68125
1442.56621	0.67849
1440.63765	0.67647
1438.70908	0.67510
1436.78052	0.67367
1434.85195	0.67038
1432.92339	0.66680
1430.99482	0.66480
1429.06626	0.66367
1427.13770	0.66278
1425.20913	0.66297
1423.28057	0.66401
1421.35200	0.66508
1419.42344	0.66651
1417.49487	0.66641
1415.56631	0.66371
1413.63774	0.66147
1411.70918	0.66078
1409.78062	0.66102
1407.85205	0.66177
1405.92349	0.66320
1403.99492	0.66437
1402.06636	0.66441
1400.13779	0.66422
1398.20923	0.66376
1396.28066	0.66198
1394.35210	0.65824
1392.42354	0.65301
1390.49497	0.64838
1388.56641	0.64491
1386.63784	0.64099
1384.70928	0.63592
1382.78071	0.63103
1380.85215	0.62693
1378.92358	0.62374
1376.99502	0.62177
1375.06646	0.62085
1373.13789	0.61965
1371.20933	0.61799
1369.28076	0.61690
1367.35220	0.61594
1365.42363	0.61483
1363.49507	0.61422
1361.56650	0.61315
1359.63794	0.61071
1357.70937	0.60830
1355.78081	0.60671
1353.85225	0.60554
1351.92368	0.60455
1349.99512	0.60382
1348.06655	0.60300
1346.13799	0.60192
1344.20942	0.60096
1342.28086	0.60068
1340.35229	0.60105
1338.42373	0.60072
1336.49517	0.59909
1334.56660	0.59746
1332.63804	0.59663
1330.70947	0.59637
1328.78091	0.59639
1326.85234	0.59674
1324.92378	0.59736
1322.99521	0.59806
1321.06665	0.59880
1319.13809	0.59946
1317.20952	0.59969
1315.28096	0.59948
1313.35239	0.59906
1311.42383	0.59829
1309.49526	0.59723
1307.56670	0.59622
1305.63813	0.59541
1303.70957	0.59471
1301.78101	0.59389
1299.85244	0.59277
1297.92388	0.59158
1295.99531	0.59042
1294.06675	0.58912
1292.13818	0.58778
1290.20962	0.58663
1288.28105	0.58558
1286.35249	0.58425
1284.42393	0.58272
1282.49536	0.58140
1280.56680	0.58026
1278.63823	0.57900
1276.70967	0.57760
1274.78110	0.57631
1272.85254	0.57542
1270.92397	0.57489
1268.99541	0.57434
1267.06685	0.57365
1265.13828	0.57280
1263.20972	0.57185
1261.28115	0.57111
1259.35259	0.57058
1257.42402	0.57015
1255.49546	0.56982
1253.56689	0.56954
1251.63833	0.56928
1249.70977	0.56910
1247.78120	0.56907
1245.85264	0.56901
1243.92407	0.56856
1241.99551	0.56754
1240.06694	0.56617
1238.13838	0.56468
1236.20981	0.56299
1234.28125	0.56104
1232.35269	0.55887
1230.42412	0.55666
1228.49556	0.55471
1226.56699	0.55292
1224.63843	0.55104
1222.70986	0.54920
1220.78130	0.54766
1218.85273	0.54634
1216.92417	0.54506
1214.99561	0.54382
1213.06704	0.54271
1211.13848	0.54185
1209.20991	0.54127
1207.28135	0.54078
1205.35278	0.54006
1203.42422	0.53913
1201.49565	0.53818
1199.56709	0.53728
1197.63853	0.53642
1195.70996	0.53560
1193.78140	0.53477
1191.85283	0.53390
1189.92427	0.53310
1187.99570	0.53257
1186.06714	0.53230
1184.13857	0.53241
1182.21001	0.53304
1180.28145	0.53403
1178.35288	0.53518
1176.42432	0.53650
1174.49575	0.53785
1172.56719	0.53893
1170.63862	0.53951
1168.71006	0.53979
1166.78149	0.54008
1164.85293	0.54047
1162.92437	0.54095
1160.99580	0.54135
1159.06724	0.54136
1157.13867	0.54086
1155.21011	0.53998
1153.28154	0.53876
1151.35298	0.53705
1149.42441	0.53479
1147.49585	0.53218
1145.56729	0.52938
1143.63872	0.52658
1141.71016	0.52408
1139.78159	0.52220
1137.85303	0.52105
1135.92446	0.52045
1133.99590	0.52009
1132.06733	0.51980
1130.13877	0.51962
1128.21021	0.51955
1126.28164	0.51939
1124.35308	0.51910
1122.42451	0.51890
1120.49595	0.51882
1118.56738	0.51876
1116.63882	0.51891
1114.71025	0.51948
1112.78169	0.52031
1110.85312	0.52131
1108.92456	0.52240
1106.99600	0.52340
1105.06743	0.52433
1103.13887	0.52525
1101.21030	0.52632
1099.28174	0.52774
1097.35317	0.52969
1095.42461	0.53230
1093.49604	0.53588
1091.56748	0.54079
1089.63892	0.54706
1087.71035	0.55473
1085.78179	0.56359
1083.85322	0.57244
1081.92466	0.58004
1079.99609	0.58568
1078.06753	0.58847
1076.13896	0.58788
1074.21040	0.58433
1072.28184	0.57876
1070.35327	0.57204
1068.42471	0.56484
1066.49614	0.55775
1064.56758	0.55120
1062.63901	0.54555
1060.71045	0.54100
1058.78188	0.53718
1056.85332	0.53350
1054.92476	0.52988
1052.99619	0.52678
1051.06763	0.52450
1049.13906	0.52299
1047.21050	0.52209
1045.28193	0.52158
1043.35337	0.52143
1041.42480	0.52152
1039.49624	0.52169
1037.56768	0.52194
1035.63911	0.52204
1033.71055	0.52172
1031.78198	0.52069
1029.85342	0.51885
1027.92485	0.51675
1025.99629	0.51494
1024.06772	0.51354
1022.13916	0.51263
1020.21060	0.51216
1018.28203	0.51171
1016.35347	0.51105
1014.42490	0.51043
1012.49634	0.51001
1010.56777	0.50977
1008.63921	0.50978
1006.71064	0.51016
1004.78208	0.51112
1002.85352	0.51280
1000.92495	0.51525
998.99639	0.51847
997.06782	0.52236
995.13926	0.52664
993.21069	0.53069
991.28213	0.53395
989.35356	0.53618
987.42500	0.53716
985.49644	0.53705
983.56787	0.53651
981.63931	0.53624
979.71074	0.53676
977.78218	0.53807
975.85361	0.53996
973.92505	0.54241
971.99648	0.54533
970.06792	0.54857
968.13936	0.55229
966.21079	0.55650
964.28223	0.56096
962.35366	0.56558
960.42510	0.57057
958.49653	0.57603
956.56797	0.58163
954.63940	0.58723
952.71084	0.59332
950.78228	0.59999
948.85371	0.60669
946.92515	0.61312
944.99658	0.61964
943.06802	0.62643
941.13945	0.63279
939.21089	0.63835
937.28232	0.64359
935.35376	0.64897
933.42520	0.65449
931.49663	0.66009
929.56807	0.66633
927.63950	0.67314
925.71094	0.67951
923.78237	0.68546
921.85381	0.69183
919.92524	0.69866
917.99668	0.70540
916.06812	0.71220
914.13955	0.71992
912.21099	0.72840
910.28242	0.73630
908.35386	0.74399
906.42529	0.75288
904.49673	0.76232
902.56816	0.77119
900.63960	0.78034
898.71104	0.79115
896.78247	0.80252
894.85391	0.81319
892.92534	0.82422
890.99678	0.83521
889.06821	0.84474
887.13965	0.85388
885.21108	0.86436
883.28252	0.87619
881.35396	0.88792
879.42539	0.89917
877.49683	0.91140
875.56826	0.92369
873.63970	0.93350
871.71113	0.94305
869.78257	0.95504
867.85400	0.96806
865.92544	0.98138
863.99687	0.99457
862.06831	1.00590
860.13975	1.01573
858.21118	1.02557
856.28262	1.03624
854.35405	1.04827
852.42549	1.06079
850.49692	1.07259
848.56836	1.08418
846.63979	1.09614
844.71123	1.10761
842.78267	1.11925
840.85410	1.13220
838.92554	1.14400
836.99697	1.15351
835.06841	1.16234
833.13984	1.17306
831.21128	1.18658
829.28271	1.20013
827.35415	1.21074
825.42559	1.21670
823.49702	1.22515
821.56846	1.24272
819.63989	1.25911
817.71133	1.26483
815.78276	1.26940
813.85420	1.27665
811.92563	1.27689
809.99707	1.27610
808.06851	1.28640
806.13994	1.30705
804.21138	1.33009
802.28281	1.34791
800.35425	1.35541
798.42568	1.35799
796.49712	1.36900
794.56855	1.37973
792.63999	1.37789
790.71143	1.37750
788.78286	1.37231
786.85430	1.33666
784.92573	1.30119
782.99717	1.30989
781.06860	1.35177
779.14004	1.38252
777.21147	1.39129
775.28291	1.36835
773.35435	1.31412
771.42578	1.27114
769.49722	1.26060
767.56865	1.28807
765.64009	1.31887
763.71152	1.32060
761.78296	1.33165
759.85439	1.34094
757.92583	1.29151
755.99727	1.23163
754.06870	1.19949
752.14014	1.17487
750.21157	1.16449
748.28301	1.16409
746.35444	1.15675
744.42588	1.16255
742.49731	1.16802
740.56875	1.12161
738.64019	1.04113
736.71162	0.91885
734.78306	0.76515
732.85449	0.66547
730.92593	0.64385
728.99736	0.66742
727.06880	0.64755
725.14023	0.55298
723.21167	0.58481
721.28311	0.80036
719.35454	0.73499
717.42598	0.45069
715.49741	0.29558
713.56885	0.25824
711.64028	0.16720
709.71172	0.00936
707.78315	-0.00474
705.85459	0.10667
703.92603	0.14841
701.99746	0.08165
700.06890	-0.01253
698.14033	-0.05060
696.21177	0.05263
694.28320	0.25442
692.35464	0.46636
690.42607	0.72746
688.49751	0.77368
686.56895	0.32240
684.64038	0.12897
682.71182	0.09611
680.78325	0.11109
678.85469	0.09664
676.92612	0.06766
674.99756	0.02664
673.06899	0.00249
671.14043	0.07467
669.21187	0.20232
667.28330	0.25107
665.35474	0.22460
663.42617	0.25332
661.49761	0.33035
659.56904	0.26770
657.64048	0.19220
655.71191	0.17479
653.78335	0.18155
651.85479	0.13668
649.92622	0.09449
647.99766	0.11858
646.06909	0.17907
644.14053	0.22797
642.21196	0.22741
640.28340	0.22062
638.35483	0.21289
636.42627	0.19116
634.49771	0.18267
632.56914	0.10377
630.64058	-0.02626
628.71201	-0.03827
626.78345	0.06956
624.85488	0.15978
622.92632	0.12924
620.99775	0.05431
619.06919	0.05998
617.14062	0.07321
615.21206	0.06450
613.28350	0.09882
611.35493	0.16515
609.42637	0.21492
607.49780	0.20834
605.56924	0.16791
603.64067	0.17581
601.71211	0.20429
599.78354	0.20094
597.85498	0.18673
595.92642	0.18312
593.99785	0.14568
592.06929	0.09090
590.14072	0.11693
588.21216	0.20424
586.28359	0.26668
584.35503	0.16908
582.42646	0.04535
580.49790	0.03683
578.56934	0.07530
576.64077	0.13055
574.71221	0.19111
572.78364	0.18915
570.85508	0.15628
568.92651	0.17421
566.99795	0.18770
565.06938	0.16023
563.14082	0.12425
561.21226	0.09121
559.28369	0.09335
557.35513	0.15707
555.42656	0.21207
553.49800	0.17575
551.56943	0.14369
549.64087	0.15722
547.71230	0.17224
545.78374	0.15718
543.85518	0.10929
541.92661	0.07188
539.99805	0.07800
538.06948	0.09842
536.14092	0.11222
534.21235	0.15384
532.28379	0.22655
530.35522	0.24188
528.42666	0.19025
526.49810	0.16398
524.56953	0.20128
522.64097	0.28033
520.71240	0.35978
518.78384	0.34497
516.85527	0.29663
514.92671	0.30316
512.99814	0.26237
511.06958	0.16376
509.14102	0.11909
507.21245	0.12870
505.28389	0.15881
503.35532	0.16896
501.42676	0.15953
499.49819	0.18136
