3997.91411	0.05126
3995.98555	0.05152
3994.05698	0.05210
3992.12842	0.05230
3990.19985	0.05223
3988.27129	0.05226
3986.34272	0.05224
3984.41416	0.05232
3982.48560	0.05234
3980.55703	0.05212
3978.62847	0.05221
3976.69990	0.05296
3974.77134	0.05384
3972.84277	0.05417
3970.91421	0.05409
3968.98564	0.05415
3967.05708	0.05448
3965.12852	0.05483
3963.19995	0.05487
3961.27139	0.05457
3959.34282	0.05434
3957.41426	0.05435
3955.48569	0.05444
3953.55713	0.05465
3951.62856	0.05517
3949.70000	0.05583
3947.77144	0.05589
3945.84287	0.05549
3943.91431	0.05568
3941.98574	0.05617
3940.05718	0.05572
3938.12861	0.05481
3936.20005	0.05470
3934.27148	0.05521
3932.34292	0.05558
3930.41436	0.05567
3928.48579	0.05575
3926.55723	0.05601
3924.62866	0.05632
3922.70010	0.05599
3920.77153	0.05516
3918.84297	0.05478
3916.91440	0.05483
3914.98584	0.05460
3913.05728	0.05408
3911.12871	0.05369
3909.20015	0.05348
3907.27158	0.05382
3905.34302	0.05539
3903.41445	0.05767
3901.48589	0.05890
3899.55732	0.05868
3897.62876	0.05722
3895.70020	0.05531
3893.77163	0.05466
3891.84307	0.05561
3889.91450	0.05629
3887.98594	0.05596
3886.05737	0.05641
3884.12881	0.05739
3882.20024	0.05751
3880.27168	0.05744
3878.34312	0.05682
3876.41455	0.05566
3874.48599	0.05566
3872.55742	0.05720
3870.62886	0.05903
3868.70029	0.05967
3866.77173	0.05892
3864.84316	0.05879
3862.91460	0.05958
3860.98604	0.05929
3859.05747	0.05826
3857.12891	0.05817
3855.20034	0.05962
3853.27178	0.06271
3851.34321	0.06434
3849.41465	0.06214
3847.48608	0.05997
3845.55752	0.05960
3843.62896	0.06098
3841.70039	0.06303
3839.77183	0.06499
3837.84326	0.06675
3835.91470	0.06717
3833.98613	0.06632
3832.05757	0.06547
3830.12900	0.06484
3828.20044	0.06461
3826.27187	0.06506
3824.34331	0.06595
3822.41475	0.06779
3820.48618	0.07056
3818.55762	0.07103
3816.62905	0.06982
3814.70049	0.06931
3812.77192	0.06882
3810.84336	0.06863
3808.91479	0.06965
3806.98623	0.07189
3805.05767	0.07386
3803.12910	0.07505
3801.20054	0.07683
3799.27197	0.07772
3797.34341	0.07721
3795.41484	0.07717
3793.48628	0.07704
3791.55771	0.07676
3789.62915	0.07707
3787.70059	0.07793
3785.77202	0.07933
3783.84346	0.08107
3781.91489	0.08250
3779.98633	0.08373
3778.05776	0.08468
3776.12920	0.08505
3774.20063	0.08570
3772.27207	0.08702
3770.34351	0.08894
3768.41494	0.09114
3766.48638	0.09285
3764.55781	0.09411
3762.62925	0.09506
3760.70068	0.09637
3758.77212	0.09910
3756.84355	0.10211
3754.91499	0.10389
3752.98643	0.10612
3751.05786	0.11048
3749.12930	0.11467
3747.20073	0.11578
3745.27217	0.11706
3743.34360	0.11994
3741.41504	0.12183
3739.48647	0.12328
3737.55791	0.12629
3735.62935	0.13118
3733.70078	0.13597
3731.77222	0.13835
3729.84365	0.13974
3727.91509	0.14209
3725.98652	0.14616
3724.05796	0.15126
3722.12939	0.15603
3720.20083	0.16016
3718.27227	0.16411
3716.34370	0.16857
3714.41514	0.17402
3712.48657	0.18189
3710.55801	0.19304
3708.62944	0.20313
3706.70088	0.21001
3704.77231	0.21709
3702.84375	0.22668
3700.91519	0.23945
3698.98662	0.25263
3697.05806	0.26480
3695.12949	0.27806
3693.20093	0.29266
3691.27236	0.30932
3689.34380	0.33071
3687.41523	0.35483
3685.48667	0.37490
3683.55811	0.39279
3681.62954	0.41283
3679.70098	0.43617
3677.77241	0.46156
3675.84385	0.49174
3673.91528	0.53047
3671.98672	0.56146
3670.05815	0.58962
3668.12959	0.62729
3666.20103	0.66084
3664.27246	0.68955
3662.34390	0.72116
3660.41533	0.75537
3658.48677	0.78925
3656.55820	0.82562
3654.62964	0.86587
3652.70107	0.89976
3650.77251	0.93055
3648.84395	0.97376
3646.91538	1.02371
3644.98682	1.05801
3643.05825	1.08468
3641.12969	1.11350
3639.20112	1.14598
3637.27256	1.17880
3635.34399	1.21057
3633.41543	1.24232
3631.48687	1.27259
3629.55830	1.30427
3627.62974	1.34484
3625.70117	1.38020
3623.77261	1.40337
3621.84404	1.42670
3619.91548	1.45540
3617.98691	1.49020
3616.05835	1.52227
3614.12979	1.54880
3612.20122	1.57705
3610.27266	1.60627
3608.34409	1.63656
3606.41553	1.66812
3604.48696	1.69603
3602.55840	1.72170
3600.62983	1.75092
3598.70127	1.78231
3596.77271	1.81207
3594.84414	1.84236
3592.91558	1.87386
3590.98701	1.90278
3589.05845	1.92971
3587.12988	1.96251
3585.20132	1.99880
3583.27275	2.02894
3581.34419	2.05692
3579.41562	2.08808
3577.48706	2.12090
3575.55850	2.15259
3573.62993	2.18367
3571.70137	2.21375
3569.77280	2.24337
3567.84424	2.27714
3565.91567	2.31887
3563.98711	2.35724
3562.05854	2.38749
3560.12998	2.41793
3558.20142	2.45072
3556.27285	2.48457
3554.34429	2.51854
3552.41572	2.55367
3550.48716	2.58959
3548.55859	2.62433
3546.63003	2.65868
3544.70146	2.69529
3542.77290	2.73288
3540.84434	2.76838
3538.91577	2.80209
3536.98721	2.83642
3535.05864	2.87365
3533.13008	2.91119
3531.20151	2.94695
3529.27295	2.98306
3527.34438	3.02146
3525.41582	3.05971
3523.48726	3.09640
3521.55869	3.13418
3519.63013	3.17111
3517.70156	3.20547
3515.77300	3.24000
3513.84443	3.27633
3511.91587	3.31329
3509.98730	3.35010
3508.05874	3.38645
3506.13018	3.42093
3504.20161	3.45509
3502.27305	3.49284
3500.34448	3.53299
3498.41592	3.57103
3496.48735	3.60811
3494.55879	3.64705
3492.63022	3.68694
3490.70166	3.72589
3488.77310	3.76276
3486.84453	3.79773
3484.91597	3.83211
3482.98740	3.86744
3481.05884	3.90562
3479.13027	3.94495
3477.20171	3.98222
3475.27314	4.01662
3473.34458	4.05087
3471.41602	4.08850
3469.48745	4.12795
3467.55889	4.16599
3465.63032	4.20423
3463.70176	4.24583
3461.77319	4.28748
3459.84463	4.32570
3457.91606	4.36081
3455.98750	4.39628
3454.05894	4.43410
3452.13037	4.47053
3450.20181	4.50538
3448.27324	4.54243
3446.34468	4.58231
3444.41611	4.62248
3442.48755	4.66423
3440.55898	4.70462
3438.63042	4.73958
3436.70186	4.77357
3434.77329	4.81024
3432.84473	4.84821
3430.91616	4.88793
3428.98760	4.93294
3427.05903	4.97874
3425.13047	5.01967
3423.20190	5.05716
3421.27334	5.09541
3419.34478	5.13278
3417.41621	5.16939
3415.48765	5.20304
3413.55908	5.23141
3411.63052	5.26595
3409.70195	5.30489
3407.77339	5.34230
3405.84482	5.38001
3403.91626	5.41632
3401.98770	5.44528
3400.05913	5.46815
3398.13057	5.49377
3396.20200	5.52302
3394.27344	5.55325
3392.34487	5.58481
3390.41631	5.62311
3388.48774	5.66176
3386.55918	5.69453
3384.63062	5.72372
3382.70205	5.75260
3380.77349	5.78017
3378.84492	5.80078
3376.91636	5.82118
3374.98779	5.85125
3373.05923	5.88595
3371.13066	5.90726
3369.20210	5.92517
3367.27354	5.94803
3365.34497	5.95899
3363.41641	5.96200
3361.48784	5.97539
3359.55928	6.00216
3357.63071	6.03293
3355.70215	6.05925
3353.77358	6.07118
3351.84502	6.07387
3349.91646	6.07508
3347.98789	6.08829
3346.05933	6.11633
3344.13076	6.13372
3342.20220	6.13979
3340.27363	6.14643
3338.34507	6.14753
3336.41650	6.14486
3334.48794	6.14884
3332.55937	6.15159
3330.63081	6.15791
3328.70225	6.18069
3326.77368	6.21289
3324.84512	6.23578
3322.91655	6.23875
3320.98799	6.24228
3319.05942	6.26197
3317.13086	6.28727
3315.20229	6.30426
3313.27373	6.30345
3311.34517	6.28483
3309.41660	6.28332
3307.48804	6.30037
3305.55947	6.30178
3303.63091	6.28931
3301.70234	6.26122
3299.77378	6.22980
3297.84521	6.22427
3295.91665	6.25506
3293.98809	6.30722
3292.05952	6.34034
3290.13096	6.33809
3288.20239	6.33622
3286.27383	6.34007
3284.34526	6.33258
3282.41670	6.32605
3280.48813	6.30953
3278.55957	6.29966
3276.63101	6.32630
3274.70244	6.36202
3272.77388	6.37498
3270.84531	6.37758
3268.91675	6.38070
3266.98818	6.36758
3265.05962	6.34741
3263.13105	6.33838
3261.20249	6.34928
3259.27393	6.36823
3257.34536	6.35993
3255.41680	6.33043
3253.48823	6.32496
3251.55967	6.35041
3249.63110	6.37603
3247.70254	6.39094
3245.77397	6.39930
3243.84541	6.39831
3241.91685	6.37765
3239.98828	6.35343
3238.05972	6.34901
3236.13115	6.35347
3234.20259	6.35723
3232.27402	6.36515
3230.34546	6.36859
3228.41689	6.35326
3226.48833	6.33011
3224.55977	6.30841
3222.63120	6.27262
3220.70264	6.22883
3218.77407	6.20674
3216.84551	6.20809
3214.91694	6.21578
3212.98838	6.21508
3211.05981	6.19293
3209.13125	6.16507
3207.20269	6.15849
3205.27412	6.15239
3203.34556	6.11533
3201.41699	6.07279
3199.48843	6.04483
3197.55986	6.01857
3195.63130	5.99060
3193.70273	5.95610
3191.77417	5.90917
3189.84561	5.86269
3187.91704	5.83221
3185.98848	5.80729
3184.05991	5.76590
3182.13135	5.71411
3180.20278	5.67086
3178.27422	5.63295
3176.34565	5.58839
3174.41709	5.54170
3172.48853	5.50317
3170.55996	5.46414
3168.63140	5.41696
3166.70283	5.36981
3164.77427	5.32342
3162.84570	5.27317
3160.91714	5.22093
3158.98857	5.17404
3157.06001	5.13003
3155.13145	5.07775
3153.20288	5.01920
3151.27432	4.96369
3149.34575	4.91610
3147.41719	4.87294
3145.48862	4.82731
3143.56006	4.77707
3141.63149	4.71953
3139.70293	4.65776
3137.77437	4.59982
3135.84580	4.54493
3133.91724	4.49079
3131.98867	4.43669
3130.06011	4.38065
3128.13154	4.32258
3126.20298	4.26192
3124.27441	4.20053
3122.34585	4.14452
3120.41729	4.09555
3118.48872	4.04741
3116.56016	3.99404
3114.63159	3.93618
3112.70303	3.87966
3110.77446	3.82497
3108.84590	3.76923
3106.91733	3.71408
3104.98877	3.66052
3103.06021	3.60720
3101.13164	3.55259
3099.20308	3.49763
3097.27451	3.44476
3095.34595	3.39304
3093.41738	3.34120
3091.48882	3.29022
3089.56025	3.24016
3087.63169	3.19006
3085.70312	3.14002
3083.77456	3.09041
3081.84600	3.04119
3079.91743	2.99189
3077.98887	2.94206
3076.06030	2.89293
3074.13174	2.84570
3072.20317	2.79984
3070.27461	2.75443
3068.34604	2.70851
3066.41748	2.66260
3064.48892	2.61809
3062.56035	2.57426
3060.63179	2.53069
3058.70322	2.48766
3056.77466	2.44469
3054.84609	2.40246
3052.91753	2.36178
3050.98896	2.32187
3049.06040	2.28158
3047.13184	2.24144
3045.20327	2.20259
3043.27471	2.16506
3041.34614	2.12769
3039.41758	2.08975
3037.48901	2.05247
3035.56045	2.01653
3033.63188	1.98068
3031.70332	1.94485
3029.77476	1.91040
3027.84619	1.87715
3025.91763	1.84390
3023.98906	1.81063
3022.06050	1.77795
3020.13193	1.74618
3018.20337	1.71523
3016.27480	1.68468
3014.34624	1.65431
3012.41768	1.62416
3010.48911	1.59432
3008.56055	1.56521
3006.63198	1.53699
3004.70342	1.50925
3002.77485	1.48173
3000.84629	1.45446
2998.91772	1.42758
2996.98916	1.40139
2995.06060	1.37597
2993.13203	1.35078
2991.20347	1.32571
2989.27490	1.30089
2987.34634	1.27631
2985.41777	1.25222
2983.48921	1.22871
2981.56064	1.20580
2979.63208	1.18340
2977.70352	1.16098
2975.77495	1.13858
2973.84639	1.11667
2971.91782	1.09522
2969.98926	1.07430
2968.06069	1.05385
2966.13213	1.03362
2964.20356	1.01373
2962.27500	0.99439
2960.34644	0.97538
2958.41787	0.95681
2956.48931	0.93916
2954.56074	0.92174
2952.63218	0.90401
2950.70361	0.88676
2948.77505	0.87014
2946.84648	0.85360
2944.91792	0.83700
2942.98936	0.82051
2941.06079	0.80458
2939.13223	0.78946
2937.20366	0.77485
2935.27510	0.76032
2933.34653	0.74590
2931.41797	0.73190
2929.48940	0.71840
2927.56084	0.70532
2925.63228	0.69262
2923.70371	0.68016
2921.77515	0.66796
2919.84658	0.65629
2917.91802	0.64458
2915.98945	0.63184
2914.06089	0.61881
2912.13232	0.60666
2910.20376	0.59512
2908.27520	0.58418
2906.34663	0.57396
2904.41807	0.56379
2902.48950	0.55366
2900.56094	0.54408
2898.63237	0.53495
2896.70381	0.52594
2894.77524	0.51695
2892.84668	0.50784
2890.91812	0.49874
2888.98955	0.49007
2887.06099	0.48179
2885.13242	0.47353
2883.20386	0.46518
2881.27529	0.45685
2879.34673	0.44883
2877.41816	0.44119
2875.48960	0.43375
2873.56104	0.42648
2871.63247	0.41923
2869.70391	0.41170
2867.77534	0.40417
2865.84678	0.39693
2863.91821	0.38983
2861.98965	0.38290
2860.06108	0.37630
2858.13252	0.37004
2856.20396	0.36415
2854.27539	0.35854
2852.34683	0.35300
2850.41826	0.34739
2848.48970	0.34149
2846.56113	0.33519
2844.63257	0.32925
2842.70400	0.32431
2840.77544	0.31985
2838.84687	0.31524
2836.91831	0.31074
2834.98975	0.30668
2833.06118	0.30267
2831.13262	0.29846
2829.20405	0.29416
2827.27549	0.28980
2825.34692	0.28557
2823.41836	0.28142
2821.48979	0.27719
2819.56123	0.27289
2817.63267	0.26860
2815.70410	0.26456
2813.77554	0.26089
2811.84697	0.25725
2809.91841	0.25343
2807.98984	0.24961
2806.06128	0.24594
2804.13271	0.24243
2802.20415	0.23899
2800.27559	0.23551
2798.34702	0.23206
2796.41846	0.22882
2794.48989	0.22579
2792.56133	0.22280
2790.63276	0.21976
2788.70420	0.21666
2786.77563	0.21349
2784.84707	0.21053
2782.91851	0.20785
2780.98994	0.20511
2779.06138	0.20224
2777.13281	0.19947
2775.20425	0.19681
2773.27568	0.19414
2771.34712	0.19145
2769.41855	0.18881
2767.48999	0.18649
2765.56143	0.18449
2763.63286	0.18248
2761.70430	0.18033
2759.77573	0.17809
2757.84717	0.17577
2755.91860	0.17355
2753.99004	0.17150
2752.06147	0.16947
2750.13291	0.16748
2748.20435	0.16566
2746.27578	0.16384
2744.34722	0.16198
2742.41865	0.16018
2740.49009	0.15844
2738.56152	0.15675
2736.63296	0.15500
2734.70439	0.15313
2732.77583	0.15137
2730.84727	0.14990
2728.91870	0.14861
2726.99014	0.14731
2725.06157	0.14583
2723.13301	0.14424
2721.20444	0.14277
2719.27588	0.14148
2717.34731	0.14023
2715.41875	0.13892
2713.49019	0.13751
2711.56162	0.13610
2709.63306	0.13488
2707.70449	0.13390
2705.77593	0.13300
2703.84736	0.13199
2701.91880	0.13086
2699.99023	0.12977
2698.06167	0.12882
2696.13311	0.12794
2694.20454	0.12698
2692.27598	0.12585
2690.34741	0.12467
2688.41885	0.12369
2686.49028	0.12297
2684.56172	0.12227
2682.63315	0.12144
2680.70459	0.12058
2678.77603	0.11980
2676.84746	0.11899
2674.91890	0.11831
2672.99033	0.11788
2671.06177	0.11732
2669.13320	0.11650
2667.20464	0.11582
2665.27607	0.11537
2663.34751	0.11491
2661.41895	0.11440
2659.49038	0.11385
2657.56182	0.11331
2655.63325	0.11286
2653.70469	0.11245
2651.77612	0.11202
2649.84756	0.11161
2647.91899	0.11126
2645.99043	0.11094
2644.06187	0.11059
2642.13330	0.11017
2640.20474	0.10981
2638.27617	0.10960
2636.34761	0.10940
2634.41904	0.10910
2632.49048	0.10879
2630.56191	0.10858
2628.63335	0.10850
2626.70479	0.10848
2624.77622	0.10832
2622.84766	0.10805
2620.91909	0.10790
2618.99053	0.10788
2617.06196	0.10796
2615.13340	0.10805
2613.20483	0.10801
2611.27627	0.10787
2609.34771	0.10784
2607.41914	0.10782
2605.49058	0.10773
2603.56201	0.10764
2601.63345	0.10763
2599.70488	0.10778
2597.77632	0.10809
2595.84775	0.10833
2593.91919	0.10843
2591.99062	0.10863
2590.06206	0.10886
2588.13350	0.10900
2586.20493	0.10919
2584.27637	0.10940
2582.34780	0.10962
2580.41924	0.10990
2578.49067	0.11025
2576.56211	0.11059
2574.63354	0.11084
2572.70498	0.11110
2570.77642	0.11146
2568.84785	0.11175
2566.91929	0.11205
2564.99072	0.11253
2563.06216	0.11293
2561.13359	0.11313
2559.20503	0.11339
2557.27646	0.11379
2555.34790	0.11424
2553.41934	0.11480
2551.49077	0.11538
2549.56221	0.11585
2547.63364	0.11629
2545.70508	0.11684
2543.77651	0.11742
2541.84795	0.11786
2539.91938	0.11824
2537.99082	0.11872
2536.06226	0.11928
2534.13369	0.11984
2532.20513	0.12041
2530.27656	0.12095
2528.34800	0.12148
2526.41943	0.12197
2524.49087	0.12243
2522.56230	0.12294
2520.63374	0.12364
2518.70518	0.12443
2516.77661	0.12512
2514.84805	0.12583
2512.91948	0.12663
2510.99092	0.12731
2509.06235	0.12778
2507.13379	0.12831
2505.20522	0.12904
2503.27666	0.12985
2501.34810	0.13060
2499.41953	0.13122
2497.49097	0.13175
2495.56240	0.13229
2493.63384	0.13292
2491.70527	0.13367
2489.77671	0.13451
2487.84814	0.13535
2485.91958	0.13608
2483.99102	0.13665
2482.06245	0.13722
2480.13389	0.13787
2478.20532	0.13858
2476.27676	0.13936
2474.34819	0.14015
2472.41963	0.14074
2470.49106	0.14123
2468.56250	0.14189
2466.63394	0.14268
2464.70537	0.14344
2462.77681	0.14425
2460.84824	0.14515
2458.91968	0.14600
2456.99111	0.14676
2455.06255	0.14757
2453.13398	0.14838
2451.20542	0.14909
2449.27686	0.14972
2447.34829	0.15041
2445.41973	0.15118
2443.49116	0.15198
2441.56260	0.15277
2439.63403	0.15354
2437.70547	0.15434
2435.77690	0.15519
2433.84834	0.15599
2431.91978	0.15676
2429.99121	0.15765
2428.06265	0.15854
2426.13408	0.15938
2424.20552	0.16021
2422.27695	0.16105
2420.34839	0.16187
2418.41982	0.16275
2416.49126	0.16365
2414.56270	0.16450
2412.63413	0.16529
2410.70557	0.16605
2408.77700	0.16692
2406.84844	0.16798
2404.91987	0.16904
2402.99131	0.16991
2401.06274	0.17074
2399.13418	0.17169
2397.20562	0.17266
2395.27705	0.17354
2393.34849	0.17440
2391.41992	0.17533
2389.49136	0.17645
2387.56279	0.17784
2385.63423	0.17942
2383.70566	0.18128
2381.77710	0.18365
2379.84854	0.18658
2377.91997	0.18989
2375.99141	0.19364
2374.06284	0.19788
2372.13428	0.20244
2370.20571	0.20754
2368.27715	0.21319
2366.34858	0.21860
2364.42002	0.22335
2362.49146	0.22710
2360.56289	0.22946
2358.63433	0.23077
2356.70576	0.23044
2354.77720	0.22772
2352.84863	0.22402
2350.92007	0.22041
2348.99150	0.21807
2347.06294	0.21833
2345.13437	0.22183
2343.20581	0.22684
2341.27725	0.22994
2339.34868	0.23116
2337.42012	0.23183
2335.49155	0.23262
2333.56299	0.23351
2331.63442	0.23414
2329.70586	0.23450
2327.77729	0.23467
2325.84873	0.23458
2323.92017	0.23447
2321.99160	0.23428
2320.06304	0.23355
2318.13447	0.23265
2316.20591	0.23224
2314.27734	0.23240
2312.34878	0.23294
2310.42021	0.23348
2308.49165	0.23374
2306.56309	0.23382
2304.63452	0.23400
2302.70596	0.23451
2300.77739	0.23526
2298.84883	0.23616
2296.92026	0.23716
2294.99170	0.23809
2293.06313	0.23892
2291.13457	0.23984
2289.20601	0.24094
2287.27744	0.24197
2285.34888	0.24285
2283.42031	0.24390
2281.49175	0.24527
2279.56318	0.24676
2277.63462	0.24837
2275.70605	0.25025
2273.77749	0.25218
2271.84893	0.25377
2269.92036	0.25511
2267.99180	0.25653
2266.06323	0.25815
2264.13467	0.25987
2262.20610	0.26148
2260.27754	0.26289
2258.34897	0.26421
2256.42041	0.26562
2254.49185	0.26720
2252.56328	0.26886
2250.63472	0.27051
2248.70615	0.27215
2246.77759	0.27372
2244.84902	0.27524
2242.92046	0.27681
2240.99189	0.27844
2239.06333	0.28009
2237.13477	0.28172
2235.20620	0.28329
2233.27764	0.28485
2231.34907	0.28656
2229.42051	0.28834
2227.49194	0.29008
2225.56338	0.29178
2223.63481	0.29345
2221.70625	0.29511
2219.77769	0.29680
2217.84912	0.29842
2215.92056	0.29992
2213.99199	0.30146
2212.06343	0.30319
2210.13486	0.30504
2208.20630	0.30674
2206.27773	0.30817
2204.34917	0.30956
2202.42061	0.31107
2200.49204	0.31251
2198.56348	0.31387
2196.63491	0.31537
2194.70635	0.31696
2192.77778	0.31845
2190.84922	0.31981
2188.92065	0.32118
2186.99209	0.32256
2185.06353	0.32386
2183.13496	0.32518
2181.20640	0.32661
2179.27783	0.32804
2177.34927	0.32930
2175.42070	0.33036
2173.49214	0.33137
2171.56357	0.33242
2169.63501	0.33344
2167.70645	0.33440
2165.77788	0.33538
2163.84932	0.33637
2161.92075	0.33723
2159.99219	0.33793
2158.06362	0.33854
2156.13506	0.33922
2154.20649	0.33992
2152.27793	0.34056
2150.34937	0.34112
2148.42080	0.34161
2146.49224	0.34201
2144.56367	0.34235
2142.63511	0.34265
2140.70654	0.34295
2138.77798	0.34318
2136.84941	0.34331
2134.92085	0.34337
2132.99229	0.34328
2131.06372	0.34309
2129.13516	0.34295
2127.20659	0.34281
2125.27803	0.34260
2123.34946	0.34226
2121.42090	0.34184
2119.49233	0.34139
2117.56377	0.34089
2115.63521	0.34030
2113.70664	0.33966
2111.77808	0.33899
2109.84951	0.33822
2107.92095	0.33739
2105.99238	0.33651
2104.06382	0.33558
2102.13525	0.33468
2100.20669	0.33378
2098.27812	0.33275
2096.34956	0.33155
2094.42100	0.33029
2092.49243	0.32907
2090.56387	0.32789
2088.63530	0.32659
2086.70674	0.32514
2084.77817	0.32368
2082.84961	0.32228
2080.92104	0.32083
2078.99248	0.31931
2077.06392	0.31769
2075.13535	0.31599
2073.20679	0.31434
2071.27822	0.31263
2069.34966	0.31080
2067.42109	0.30905
2065.49253	0.30741
2063.56396	0.30566
2061.63540	0.30373
2059.70684	0.30177
2057.77827	0.29984
2055.84971	0.29794
2053.92114	0.29616
2051.99258	0.29438
2050.06401	0.29240
2048.13545	0.29036
2046.20688	0.28833
2044.27832	0.28631
2042.34976	0.28433
2040.42119	0.28227
2038.49263	0.28014
2036.56406	0.27808
2034.63550	0.27605
2032.70693	0.27392
2030.77837	0.27183
2028.84980	0.26980
2026.92124	0.26776
2024.99268	0.26567
2023.06411	0.26361
2021.13555	0.26159
2019.20698	0.25959
2017.27842	0.25760
2015.34985	0.25549
2013.42129	0.25330
2011.49272	0.25118
2009.56416	0.24910
2007.63560	0.24697
2005.70703	0.24492
2003.77847	0.24300
2001.84990	0.24106
1999.92134	0.23909
1997.99277	0.23716
1996.06421	0.23528
1994.13564	0.23353
1992.20708	0.23184
1990.27852	0.22996
1988.34995	0.22793
1986.42139	0.22595
1984.49282	0.22412
1982.56426	0.22242
1980.63569	0.22067
1978.70713	0.21883
1976.77856	0.21707
1974.85000	0.21542
1972.92144	0.21381
1970.99287	0.21230
1969.06431	0.21094
1967.13574	0.20957
1965.20718	0.20806
1963.27861	0.20647
1961.35005	0.20492
1959.42148	0.20339
1957.49292	0.20191
1955.56436	0.20049
1953.63579	0.19920
1951.70723	0.19798
1949.77866	0.19684
1947.85010	0.19575
1945.92153	0.19470
1943.99297	0.19376
1942.06440	0.19279
1940.13584	0.19150
1938.20728	0.19017
1936.27871	0.18915
1934.35015	0.18827
1932.42158	0.18734
1930.49302	0.18636
1928.56445	0.18545
1926.63589	0.18470
1924.70732	0.18419
1922.77876	0.18367
1920.85020	0.18290
1918.92163	0.18219
1916.99307	0.18160
1915.06450	0.18080
1913.13594	0.18001
1911.20737	0.17951
1909.27881	0.17910
1907.35024	0.17853
1905.42168	0.17790
1903.49312	0.17736
1901.56455	0.17692
1899.63599	0.17658
1897.70742	0.17634
1895.77886	0.17615
1893.85029	0.17591
1891.92173	0.17566
1889.99316	0.17566
1888.06460	0.17553
1886.13604	0.17509
1884.20747	0.17470
1882.27891	0.17448
1880.35034	0.17441
1878.42178	0.17438
1876.49321	0.17436
1874.56465	0.17437
1872.63608	0.17462
1870.70752	0.17523
1868.77896	0.17606
1866.85039	0.17627
1864.92183	0.17577
1862.99326	0.17549
1861.06470	0.17560
1859.13613	0.17584
1857.20757	0.17601
1855.27900	0.17623
1853.35044	0.17657
1851.42187	0.17705
1849.49331	0.17761
1847.56475	0.17831
1845.63618	0.17925
1843.70762	0.18025
1841.77905	0.18062
1839.85049	0.18059
1837.92192	0.18099
1835.99336	0.18163
1834.06479	0.18232
1832.13623	0.18326
1830.20767	0.18471
1828.27910	0.18599
1826.35054	0.18668
1824.42197	0.18738
1822.49341	0.18795
1820.56484	0.18859
1818.63628	0.18959
1816.70771	0.19086
1814.77915	0.19216
1812.85059	0.19358
1810.92202	0.19521
1808.99346	0.19670
1807.06489	0.19803
1805.13633	0.19942
1803.20776	0.20119
1801.27920	0.20334
1799.35063	0.20552
1797.42207	0.20725
1795.49351	0.20896
1793.56494	0.21132
1791.63638	0.21438
1789.70781	0.21677
1787.77925	0.21831
1785.85068	0.22053
1783.92212	0.22336
1781.99355	0.22632
1780.06499	0.22940
1778.13643	0.23253
1776.20786	0.23562
1774.27930	0.23924
1772.35073	0.24410
1770.42217	0.24878
1768.49360	0.25225
1766.56504	0.25566
1764.63647	0.25942
1762.70791	0.26391
1760.77935	0.26969
1758.85078	0.27495
1756.92222	0.28008
1754.99365	0.28561
1753.06509	0.29079
1751.13652	0.29734
1749.20796	0.30562
1747.27939	0.31336
1745.35083	0.31986
1743.42227	0.32686
1741.49370	0.33484
1739.56514	0.34428
1737.63657	0.35364
1735.70801	0.36200
1733.77944	0.37471
1731.85088	0.38946
1729.92231	0.40086
1727.99375	0.41236
1726.06519	0.42498
1724.13662	0.43906
1722.20806	0.45421
1720.27949	0.46830
1718.35093	0.48530
1716.42236	0.51017
1714.49380	0.53290
1712.56523	0.55073
1710.63667	0.56826
1708.70811	0.58764
1706.77954	0.60994
1704.85098	0.63613
1702.92241	0.65911
1700.99385	0.68223
1699.06528	0.71653
1697.13672	0.74709
1695.20815	0.77734
1693.27959	0.80652
1691.35103	0.83017
1689.42246	0.85760
1687.49390	0.88629
1685.56533	0.91407
1683.63677	0.95672
1681.70820	0.99985
1679.77964	1.02710
1677.85107	1.05347
1675.92251	1.08427
1673.99395	1.12181
1672.06538	1.15463
1670.13682	1.18650
1668.20825	1.22671
1666.27969	1.25880
1664.35112	1.28602
1662.42256	1.31967
1660.49399	1.35626
1658.56543	1.38418
1656.63687	1.40763
1654.70830	1.43161
1652.77974	1.47259
1650.85117	1.51175
1648.92261	1.52753
1646.99404	1.54867
1645.06548	1.57428
1643.13691	1.59137
1641.20835	1.60193
1639.27979	1.61126
1637.35122	1.61769
1635.42266	1.61993
1633.49409	1.61683
1631.56553	1.60931
1629.63696	1.59932
1627.70840	1.58281
1625.77983	1.56314
1623.85127	1.53758
1621.92271	1.50516
1619.99414	1.47597
1618.06558	1.44724
1616.13701	1.40454
1614.20845	1.35966
1612.27988	1.32545
1610.35132	1.29019
1608.42275	1.25147
1606.49419	1.21266
1604.56562	1.17634
1602.63706	1.14079
1600.70850	1.10543
1598.77993	1.07261
1596.85137	1.04227
1594.92280	1.01300
1592.99424	0.98423
1591.06567	0.95738
1589.13711	0.93219
1587.20854	0.90863
1585.27998	0.88655
1583.35142	0.86531
1581.42285	0.84522
1579.49429	0.82788
1577.56572	0.81252
1575.63716	0.79314
1573.70859	0.77472
1571.78003	0.76248
1569.85146	0.74985
1567.92290	0.73463
1565.99434	0.72146
1564.06577	0.71011
1562.13721	0.70090
1560.20864	0.69365
1558.28008	0.68085
1556.35151	0.66707
1554.42295	0.65794
1552.49438	0.64944
1550.56582	0.64156
1548.63726	0.63383
1546.70869	0.62721
1544.78013	0.62180
1542.85156	0.61677
1540.92300	0.61090
1538.99443	0.60149
1537.06587	0.59366
1535.13730	0.58879
1533.20874	0.58341
1531.28018	0.57731
1529.35161	0.57266
1527.42305	0.56870
1525.49448	0.56474
1523.56592	0.56121
1521.63735	0.55742
1519.70879	0.55245
1517.78022	0.54786
1515.85166	0.54339
1513.92310	0.53905
1511.99453	0.53573
1510.06597	0.53336
1508.13740	0.53169
1506.20884	0.52809
1504.28027	0.52294
1502.35171	0.51954
1500.42314	0.51720
1498.49458	0.51521
1496.56602	0.51274
1494.63745	0.50975
1492.70889	0.50728
1490.78032	0.50564
1488.85176	0.50379
1486.92319	0.50080
1484.99463	0.49764
1483.06606	0.49521
1481.13750	0.49321
1479.20894	0.49124
1477.28037	0.48957
1475.35181	0.48832
1473.42324	0.48702
1471.49468	0.48432
1469.56611	0.48088
1467.63755	0.47838
1465.70898	0.47671
1463.78042	0.47499
1461.85186	0.47317
1459.92329	0.47200
1457.99473	0.47121
1456.06616	0.46925
1454.13760	0.46658
1452.20903	0.46462
1450.28047	0.46318
1448.35190	0.46190
1446.42334	0.46036
1444.49478	0.45877
1442.56621	0.45749
1440.63765	0.45647
1438.70908	0.45587
1436.78052	0.45554
1434.85195	0.45464
1432.92339	0.45326
1430.99482	0.45206
1429.06626	0.45080
1427.13770	0.44939
1425.20913	0.44825
1423.28057	0.44745
1421.35200	0.44677
1419.42344	0.44613
1417.49487	0.44502
1415.56631	0.44337
1413.63774	0.44183
1411.70918	0.44053
1409.78062	0.43941
1407.85205	0.43844
1405.92349	0.43767
1403.99492	0.43677
1402.06636	0.43566
1400.13779	0.43485
1398.20923	0.43429
1396.28066	0.43353
1394.35210	0.43229
1392.42354	0.43070
1390.49497	0.42937
1388.56641	0.42856
1386.63784	0.42780
1384.70928	0.42663
1382.78071	0.42546
1380.85215	0.42461
1378.92358	0.42399
1376.99502	0.42347
1375.06646	0.42298
1373.13789	0.42222
1371.20933	0.42122
1369.28076	0.42034
1367.35220	0.41957
1365.42363	0.41891
1363.49507	0.41846
1361.56650	0.41793
1359.63794	0.41710
1357.70937	0.41630
1355.78081	0.41563
1353.85225	0.41494
1351.92368	0.41425
1349.99512	0.41365
1348.06655	0.41305
1346.13799	0.41238
1344.20942	0.41169
1342.28086	0.41112
1340.35229	0.41075
1338.42373	0.41012
1336.49517	0.40905
1334.56660	0.40802
1332.63804	0.40729
1330.70947	0.40676
1328.78091	0.40625
1326.85234	0.40563
1324.92378	0.40492
1322.99521	0.40428
1321.06665	0.40368
1319.13809	0.40302
1317.20952	0.40229
1315.28096	0.40171
1313.35239	0.40124
1311.42383	0.40065
1309.49526	0.39997
1307.56670	0.39934
1305.63813	0.39875
1303.70957	0.39813
1301.78101	0.39752
1299.85244	0.39689
1297.92388	0.39623
1295.99531	0.39560
1294.06675	0.39509
1292.13818	0.39465
1290.20962	0.39422
1288.28105	0.39380
1286.35249	0.39337
1284.42393	0.39301
1282.49536	0.39278
1280.56680	0.39256
1278.63823	0.39228
1276.70967	0.39192
1274.78110	0.39145
1272.85254	0.39097
1270.92397	0.39061
1268.99541	0.39027
1267.06685	0.38986
1265.13828	0.38942
1263.20972	0.38916
1261.28115	0.38922
1259.35259	0.38937
1257.42402	0.38929
1255.49546	0.38902
1253.56689	0.38877
1251.63833	0.38857
1249.70977	0.38842
1247.78120	0.38832
1245.85264	0.38817
1243.92407	0.38794
1241.99551	0.38776
1240.06694	0.38758
1238.13838	0.38720
1236.20981	0.38666
1234.28125	0.38620
1232.35269	0.38590
1230.42412	0.38557
1228.49556	0.38514
1226.56699	0.38466
1224.63843	0.38418
1222.70986	0.38362
1220.78130	0.38305
1218.85273	0.38262
1216.92417	0.38230
1214.99561	0.38198
1213.06704	0.38150
1211.13848	0.38092
1209.20991	0.38041
1207.28135	0.37997
1205.35278	0.37955
1203.42422	0.37923
1201.49565	0.37898
1199.56709	0.37861
1197.63853	0.37816
1195.70996	0.37778
1193.78140	0.37740
1191.85283	0.37697
1189.92427	0.37659
1187.99570	0.37631
1186.06714	0.37619
1184.13857	0.37613
1182.21001	0.37611
1180.28145	0.37621
1178.35288	0.37633
1176.42432	0.37649
1174.49575	0.37681
1172.56719	0.37714
1170.63862	0.37735
1168.71006	0.37757
1166.78149	0.37778
1164.85293	0.37794
1162.92437	0.37812
1160.99580	0.37824
1159.06724	0.37803
1157.13867	0.37746
1155.21011	0.37669
1153.28154	0.37584
1151.35298	0.37485
1149.42441	0.37365
1147.49585	0.37224
1145.56729	0.37068
1143.63872	0.36901
1141.71016	0.36723
1139.78159	0.36533
1137.85303	0.36352
1135.92446	0.36194
1133.99590	0.36051
1132.06733	0.35912
1130.13877	0.35771
1128.21021	0.35637
1126.28164	0.35521
1124.35308	0.35417
1122.42451	0.35317
1120.49595	0.35238
1118.56738	0.35207
1116.63882	0.35204
1114.71025	0.35212
1112.78169	0.35227
1110.85312	0.35242
1108.92456	0.35291
1106.99600	0.35396
1105.06743	0.35512
1103.13887	0.35612
1101.21030	0.35739
1099.28174	0.35920
1097.35317	0.36130
1095.42461	0.36358
1093.49604	0.36616
1091.56748	0.36919
1089.63892	0.37275
1087.71035	0.37682
1085.78179	0.38125
1083.85322	0.38589
1081.92466	0.39059
1079.99609	0.39495
1078.06753	0.39811
1076.13896	0.39924
1074.21040	0.39814
1072.28184	0.39524
1070.35327	0.39117
1068.42471	0.38651
1066.49614	0.38169
1064.56758	0.37705
1062.63901	0.37280
1060.71045	0.36897
1058.78188	0.36557
1056.85332	0.36261
1054.92476	0.36004
1052.99619	0.35786
1051.06763	0.35593
1049.13906	0.35419
1047.21050	0.35275
1045.28193	0.35164
1043.35337	0.35077
1041.42480	0.35002
1039.49624	0.34941
1037.56768	0.34904
1035.63911	0.34887
1033.71055	0.34882
1031.78198	0.34893
1029.85342	0.34917
1027.92485	0.34949
1025.99629	0.34981
1024.06772	0.35015
1022.13916	0.35063
1020.21060	0.35128
1018.28203	0.35199
1016.35347	0.35273
1014.42490	0.35357
1012.49634	0.35465
1010.56777	0.35596
1008.63921	0.35726
1006.71064	0.35852
1004.78208	0.36003
1002.85352	0.36192
1000.92495	0.36403
998.99639	0.36634
997.06782	0.36896
995.13926	0.37181
993.21069	0.37454
991.28213	0.37687
989.35356	0.37869
987.42500	0.38008
985.49644	0.38116
983.56787	0.38203
981.63931	0.38290
979.71074	0.38398
977.78218	0.38546
975.85361	0.38741
973.92505	0.38970
971.99648	0.39214
970.06792	0.39472
968.13936	0.39751
966.21079	0.40068
964.28223	0.40427
962.35366	0.40808
960.42510	0.41205
958.49653	0.41626
956.56797	0.42069
954.63940	0.42527
952.71084	0.43006
950.78228	0.43501
948.85371	0.43987
946.92515	0.44465
944.99658	0.44948
943.06802	0.45429
941.13945	0.45899
939.21089	0.46343
937.28232	0.46783
935.35376	0.47246
933.42520	0.47695
931.49663	0.48105
929.56807	0.48528
927.63950	0.48988
925.71094	0.49443
923.78237	0.49889
921.85381	0.50413
919.92524	0.51009
917.99668	0.51578
916.06812	0.52117
914.13955	0.52664
912.21099	0.53243
910.28242	0.53892
908.35386	0.54605
906.42529	0.55315
904.49673	0.55972
902.56816	0.56597
900.63960	0.57278
898.71104	0.58058
896.78247	0.58825
894.85391	0.59539
892.92534	0.60329
890.99678	0.61190
889.06821	0.62042
887.13965	0.62904
885.21108	0.63806
883.28252	0.64750
881.35396	0.65658
879.42539	0.66496
877.49683	0.67378
875.56826	0.68330
873.63970	0.69226
871.71113	0.70034
869.78257	0.70843
867.85400	0.71689
865.92544	0.72538
863.99687	0.73388
862.06831	0.74307
860.13975	0.75331
858.21118	0.76371
856.28262	0.77268
854.35405	0.78029
852.42549	0.78839
850.49692	0.79803
848.56836	0.80787
846.63979	0.81590
844.71123	0.82269
842.78267	0.83072
840.85410	0.84089
838.92554	0.85180
836.99697	0.86228
835.06841	0.87166
833.13984	0.87903
831.21128	0.88640
829.28271	0.89727
827.35415	0.90982
825.42559	0.91946
823.49702	0.92820
821.56846	0.93930
819.63989	0.94845
817.71133	0.95368
815.78276	0.95986
813.85420	0.96705
811.92563	0.97566
809.99707	0.99044
808.06851	1.00763
806.13994	1.01824
804.21138	1.02201
802.28281	1.02895
800.35425	1.04181
798.42568	1.04914
796.49712	1.04791
794.56855	1.05159
792.63999	1.07000
790.71143	1.09641
788.78286	1.11809
786.85430	1.13354
784.92573	1.14195
782.99717	1.14027
781.06860	1.14472
779.14004	1.15165
777.21147	1.15743
775.28291	1.19876
773.35435	1.27123
771.42578	1.31618
769.49722	1.30312
767.56865	1.26323
765.64009	1.26731
763.71152	1.36096
761.78296	1.42300
759.85439	1.29576
757.92583	1.19060
755.99727	1.20924
754.06870	1.30867
752.14014	1.39140
750.21157	1.44079
748.28301	1.42057
746.35444	1.37347
744.42588	1.43679
742.49731	1.79967
740.56875	4.44341
738.64019	4.43184
736.71162	4.42027
734.78306	1.40686
732.85449	0.92528
730.92593	0.72006
728.99736	0.67575
727.06880	0.71499
725.14023	0.71249
723.21167	0.60826
721.28311	0.42871
719.35454	0.29930
717.42598	0.22089
715.49741	0.14811
713.56885	0.12950
711.64028	0.10733
709.71172	-0.00884
707.78315	-0.04592
705.85459	0.01062
703.92603	0.02170
701.99746	0.02045
700.06890	0.04715
698.14033	0.07779
696.21177	0.17958
694.28320	0.24128
692.35464	0.15209
690.42607	0.09150
688.49751	0.16847
686.56895	0.28197
684.64038	0.25932
682.71182	0.24559
680.78325	0.34777
678.85469	0.46234
676.92612	0.38090
674.99756	0.19830
673.06899	0.07994
671.14043	0.09494
669.21187	0.16445
667.28330	0.16081
665.35474	0.12027
663.42617	0.12859
661.49761	0.19376
659.56904	0.24828
657.64048	0.25639
655.71191	0.24183
653.78335	0.22519
651.85479	0.13677
649.92622	0.08049
647.99766	0.15287
646.06909	0.26097
644.14053	0.29488
642.21196	0.29325
640.28340	0.29777
638.35483	0.32598
636.42627	0.45110
634.49771	0.40931
632.56914	0.18751
630.64058	0.07215
628.71201	0.13794
626.78345	0.26051
624.85488	0.25369
622.92632	0.16258
620.99775	0.12433
619.06919	0.16747
617.14062	0.23606
615.21206	0.27512
613.28350	0.24518
611.35493	0.25796
609.42637	0.35516
607.49780	0.41283
605.56924	0.29859
603.64067	0.17920
601.71211	0.13103
599.78354	0.09767
597.85498	0.05796
595.92642	0.07075
593.99785	0.13818
592.06929	0.21675
590.14072	0.27310
588.21216	0.26657
586.28359	0.19172
584.35503	0.15374
582.42646	0.20540
580.49790	0.19710
578.56934	0.15739
576.64077	0.18671
574.71221	0.28532
572.78364	0.35273
570.85508	0.28548
568.92651	0.19158
566.99795	0.16559
565.06938	0.19571
563.14082	0.25821
561.21226	0.26421
559.28369	0.24109
557.35513	0.22122
555.42656	0.16375
553.49800	0.11410
551.56943	0.10878
549.64087	0.10508
547.71230	0.07477
545.78374	0.05983
543.85518	0.04687
541.92661	-0.01150
539.99805	-0.04284
538.06948	0.00957
536.14092	0.10315
534.21235	0.18834
532.28379	0.23914
530.35522	0.24573
528.42666	0.19452
526.49810	0.13129
524.56953	0.11900
522.64097	0.14225
520.71240	0.14913
518.78384	0.18117
516.85527	0.24926
514.92671	0.23563
512.99814	0.18673
511.06958	0.20079
509.14102	0.18753
507.21245	0.12502
505.28389	0.12728
503.35532	0.17784
501.42676	0.12560
499.49819	0.02803
