3997.91411	0.12933
3995.98555	0.12962
3994.05698	0.12989
3992.12842	0.12992
3990.19985	0.13002
3988.27129	0.13041
3986.34272	0.13095
3984.41416	0.13145
3982.48560	0.13173
3980.55703	0.13166
3978.62847	0.13142
3976.69990	0.13160
3974.77134	0.13225
3972.84277	0.13270
3970.91421	0.13276
3968.98564	0.13277
3967.05708	0.13279
3965.12852	0.13294
3963.19995	0.13355
3961.27139	0.13417
3959.34282	0.13412
3957.41426	0.13391
3955.48569	0.13392
3953.55713	0.13403
3951.62856	0.13462
3949.70000	0.13563
3947.77144	0.13607
3945.84287	0.13580
3943.91431	0.13587
3941.98574	0.13612
3940.05718	0.13535
3938.12861	0.13397
3936.20005	0.13332
3934.27148	0.13411
3932.34292	0.13603
3930.41436	0.13726
3928.48579	0.13659
3926.55723	0.13561
3924.62866	0.13567
3922.70010	0.13581
3920.77153	0.13524
3918.84297	0.13511
3916.91440	0.13569
3914.98584	0.13516
3913.05728	0.13313
3911.12871	0.13141
3909.20015	0.13108
3907.27158	0.13260
3905.34302	0.13607
3903.41445	0.13993
3901.48589	0.14158
3899.55732	0.14059
3897.62876	0.13786
3895.70020	0.13510
3893.77163	0.13457
3891.84307	0.13633
3889.91450	0.13700
3887.98594	0.13570
3886.05737	0.13602
3884.12881	0.13753
3882.20024	0.13810
3880.27168	0.13836
3878.34312	0.13716
3876.41455	0.13572
3874.48599	0.13698
3872.55742	0.13961
3870.62886	0.14159
3868.70029	0.14230
3866.77173	0.14133
3864.84316	0.14123
3862.91460	0.14177
3860.98604	0.14012
3859.05747	0.13825
3857.12891	0.13902
3855.20034	0.14261
3853.27178	0.14820
3851.34321	0.14960
3849.41465	0.14461
3847.48608	0.14042
3845.55752	0.13927
3843.62896	0.14120
3841.70039	0.14519
3839.77183	0.14952
3837.84326	0.15226
3835.91470	0.15139
3833.98613	0.14886
3832.05757	0.14731
3830.12900	0.14677
3828.20044	0.14707
3826.27187	0.14827
3824.34331	0.14985
3822.41475	0.15261
3820.48618	0.15679
3818.55762	0.15785
3816.62905	0.15636
3814.70049	0.15462
3812.77192	0.15192
3810.84336	0.15041
3808.91479	0.15169
3806.98623	0.15508
3805.05767	0.15814
3803.12910	0.16096
3801.20054	0.16513
3799.27197	0.16673
3797.34341	0.16484
3795.41484	0.16292
3793.48628	0.16104
3791.55771	0.16009
3789.62915	0.16079
3787.70059	0.16240
3785.77202	0.16474
3783.84346	0.16718
3781.91489	0.16889
3779.98633	0.17090
3778.05776	0.17277
3776.12920	0.17284
3774.20063	0.17283
3772.27207	0.17474
3770.34351	0.17889
3768.41494	0.18335
3766.48638	0.18583
3764.55781	0.18713
3762.62925	0.18820
3760.70068	0.19037
3758.77212	0.19424
3756.84355	0.19761
3754.91499	0.20011
3752.98643	0.20463
3751.05786	0.21240
3749.12930	0.21852
3747.20073	0.21931
3745.27217	0.22026
3743.34360	0.22293
3741.41504	0.22474
3739.48647	0.22678
3737.55791	0.23136
3735.62935	0.23939
3733.70078	0.24742
3731.77222	0.24964
3729.84365	0.24935
3727.91509	0.25162
3725.98652	0.25747
3724.05796	0.26477
3722.12939	0.27114
3720.20083	0.27672
3718.27227	0.28199
3716.34370	0.28775
3714.41514	0.29536
3712.48657	0.30734
3710.55801	0.32453
3708.62944	0.33873
3706.70088	0.34670
3704.77231	0.35515
3702.84375	0.36790
3700.91519	0.38519
3698.98662	0.40263
3697.05806	0.41882
3695.12949	0.43719
3693.20093	0.45810
3691.27236	0.48259
3689.34380	0.51408
3687.41523	0.54807
3685.48667	0.57447
3683.55811	0.59785
3681.62954	0.62547
3679.70098	0.65873
3677.77241	0.69503
3675.84385	0.73804
3673.91528	0.79219
3671.98672	0.83372
3670.05815	0.87177
3668.12959	0.92361
3666.20103	0.96871
3664.27246	1.00707
3662.34390	1.05012
3660.41533	1.09721
3658.48677	1.14417
3656.55820	1.19520
3654.62964	1.25163
3652.70107	1.29865
3650.77251	1.34156
3648.84395	1.40233
3646.91538	1.47171
3644.98682	1.51731
3643.05825	1.55245
3641.12969	1.59131
3639.20112	1.63541
3637.27256	1.67964
3635.34399	1.72294
3633.41543	1.76682
3631.48687	1.80886
3629.55830	1.85325
3627.62974	1.90913
3625.70117	1.95666
3623.77261	1.98831
3621.84404	2.02145
3619.91548	2.06180
3617.98691	2.10983
3616.05835	2.15428
3614.12979	2.19223
3612.20122	2.23341
3610.27266	2.27357
3608.34409	2.31215
3606.41553	2.35330
3604.48696	2.39241
3602.55840	2.42877
3600.62983	2.46850
3598.70127	2.50986
3596.77271	2.54965
3594.84414	2.59173
3592.91558	2.63440
3590.98701	2.67220
3589.05845	2.70867
3587.12988	2.75445
3585.20132	2.80296
3583.27275	2.84267
3581.34419	2.88115
3579.41562	2.92345
3577.48706	2.96629
3575.55850	3.00817
3573.62993	3.05221
3571.70137	3.09554
3569.77280	3.13686
3567.84424	3.18289
3565.91567	3.23859
3563.98711	3.28833
3562.05854	3.32760
3560.12998	3.36887
3558.20142	3.41350
3556.27285	3.45693
3554.34429	3.49943
3552.41572	3.54733
3550.48716	3.59899
3548.55859	3.64790
3546.63003	3.69540
3544.70146	3.74534
3542.77290	3.79355
3540.84434	3.83778
3538.91577	3.88441
3536.98721	3.93559
3535.05864	3.98859
3533.13008	4.03910
3531.20151	4.08776
3529.27295	4.13620
3527.34438	4.18381
3525.41582	4.22988
3523.48726	4.27570
3521.55869	4.32351
3519.63013	4.37227
3517.70156	4.42126
3515.77300	4.47065
3513.84443	4.52046
3511.91587	4.56970
3509.98730	4.61957
3508.05874	4.66789
3506.13018	4.71201
3504.20161	4.75945
3502.27305	4.81099
3500.34448	4.85737
3498.41592	4.90368
3496.48735	4.95802
3494.55879	5.01270
3492.63022	5.06366
3490.70166	5.11695
3488.77310	5.16874
3486.84453	5.20755
3484.91597	5.24102
3482.98740	5.28698
3481.05884	5.34202
3479.13027	5.39172
3477.20171	5.43955
3475.27314	5.49383
3473.34458	5.54611
3471.41602	5.59043
3469.48745	5.63823
3467.55889	5.69486
3465.63032	5.75199
3463.70176	5.80949
3461.77319	5.86711
3459.84463	5.91509
3457.91606	5.95337
3455.98750	6.00104
3454.05894	6.06519
3452.13037	6.12679
3450.20181	6.17042
3448.27324	6.20151
3446.34468	6.23451
3444.41611	6.27571
3442.48755	6.33041
3440.55898	6.38599
3438.63042	6.43613
3436.70186	6.49682
3434.77329	6.55678
3432.84473	6.59296
3430.91616	6.61565
3428.98760	6.65079
3427.05903	6.70815
3425.13047	6.78815
3423.20190	6.86927
3421.27334	6.93115
3419.34478	6.95285
3417.41621	6.95266
3415.48765	6.99131
3413.55908	7.06525
3411.63052	7.13699
3409.70195	7.18983
3407.77339	7.22275
3405.84482	7.23992
3403.91626	7.27416
3401.98770	7.32805
3400.05913	7.37750
3398.13057	7.41315
3396.20200	7.43309
3394.27344	7.45033
3392.34487	7.45624
3390.41631	7.49034
3388.48774	7.59539
3386.55918	7.75032
3384.63062	7.87194
3382.70205	7.91104
3380.77349	7.89058
3378.84492	7.83459
3376.91636	7.83314
3374.98779	7.89292
3373.05923	7.88837
3371.13066	7.80320
3369.20210	7.77695
3367.27354	7.84142
3365.34497	7.91537
3363.41641	7.96219
3361.48784	8.00318
3359.55928	8.04681
3357.63071	8.09859
3355.70215	8.17199
3353.77358	8.18195
3351.84502	8.10149
3349.91646	8.01540
3347.98789	7.98936
3346.05933	8.01909
3344.13076	8.08128
3342.20220	8.15241
3340.27363	8.18983
3338.34507	8.21700
3336.41650	8.20886
3334.48794	8.17286
3332.55937	8.19102
3330.63081	8.25445
3328.70225	8.25200
3326.77368	8.17042
3324.84512	8.14639
3322.91655	8.24434
3320.98799	8.35978
3319.05942	8.32366
3317.13086	8.21007
3315.20229	8.17781
3313.27373	8.22256
3311.34517	8.24386
3309.41660	8.24851
3307.48804	8.20202
3305.55947	8.08136
3303.63091	8.11189
3301.70234	8.32831
3299.77378	8.47424
3297.84521	8.45053
3295.91665	8.39382
3293.98809	8.35116
3292.05952	8.41707
3290.13096	8.60439
3288.20239	8.65437
3286.27383	8.57823
3284.34526	8.60377
3282.41670	8.65694
3280.48813	8.53713
3278.55957	8.36538
3276.63101	8.33301
3274.70244	8.35748
3272.77388	8.28152
3270.84531	8.22085
3268.91675	8.26113
3266.98818	8.28113
3265.05962	8.24531
3263.13105	8.26169
3261.20249	8.34152
3259.27393	8.33078
3257.34536	8.30867
3255.41680	8.39863
3253.48823	8.48119
3251.55967	8.48623
3249.63110	8.44368
3247.70254	8.44025
3245.77397	8.49278
3243.84541	8.44879
3241.91685	8.28746
3239.98828	8.19492
3238.05972	8.23909
3236.13115	8.32190
3234.20259	8.31638
3232.27402	8.26955
3230.34546	8.31388
3228.41689	8.43759
3226.48833	8.44117
3224.55977	8.25495
3222.63120	8.15451
3220.70264	8.20671
3218.77407	8.23888
3216.84551	8.18416
3214.91694	8.12670
3212.98838	8.16135
3211.05981	8.20271
3209.13125	8.17346
3207.20269	8.20219
3205.27412	8.25602
3203.34556	8.15760
3201.41699	7.98155
3199.48843	7.85525
3197.55986	7.80673
3195.63130	7.85229
3193.70273	7.93013
3191.77417	7.94650
3189.84561	7.87465
3187.91704	7.73689
3185.98848	7.61925
3184.05991	7.56943
3182.13135	7.53909
3180.20278	7.52061
3178.27422	7.51578
3176.34565	7.44819
3174.41709	7.31641
3172.48853	7.21608
3170.55996	7.17170
3168.63140	7.12951
3166.70283	7.06891
3164.77427	6.99254
3162.84570	6.90492
3160.91714	6.83721
3158.98857	6.80697
3157.06001	6.79582
3155.13145	6.74451
3153.20288	6.63812
3151.27432	6.54807
3149.34575	6.50249
3147.41719	6.45880
3145.48862	6.39521
3143.56006	6.33071
3141.63149	6.26609
3139.70293	6.19281
3137.77437	6.11781
3135.84580	6.04246
3133.91724	5.96554
3131.98867	5.88613
3130.06011	5.80866
3128.13154	5.73962
3126.20298	5.67704
3124.27441	5.61111
3122.34585	5.53573
3120.41729	5.46168
3118.48872	5.39001
3116.56016	5.31355
3114.63159	5.24422
3112.70303	5.18895
3110.77446	5.12809
3108.84590	5.05063
3106.91733	4.97073
3104.98877	4.89596
3103.06021	4.82496
3101.13164	4.76098
3099.20308	4.70303
3097.27451	4.64040
3095.34595	4.57016
3093.41738	4.50079
3091.48882	4.43526
3089.56025	4.36944
3087.63169	4.30320
3085.70312	4.24153
3083.77456	4.18338
3081.84600	4.12467
3079.91743	4.06416
3077.98887	4.00218
3076.06030	3.94208
3074.13174	3.88448
3072.20317	3.82664
3070.27461	3.76776
3068.34604	3.70855
3066.41748	3.65052
3064.48892	3.59432
3062.56035	3.53844
3060.63179	3.48237
3058.70322	3.42695
3056.77466	3.37237
3054.84609	3.31825
3052.91753	3.26453
3050.98896	3.21206
3049.06040	3.16096
3047.13184	3.11023
3045.20327	3.06003
3043.27471	3.01113
3041.34614	2.96370
3039.41758	2.91726
3037.48901	2.87022
3035.56045	2.82210
3033.63188	2.77433
3031.70332	2.72767
3029.77476	2.68199
3027.84619	2.63777
3025.91763	2.59503
3023.98906	2.55246
3022.06050	2.50970
3020.13193	2.46708
3018.20337	2.42427
3016.27480	2.38183
3014.34624	2.34104
3012.41768	2.30138
3010.48911	2.26179
3008.56055	2.22326
3006.63198	2.18608
3004.70342	2.14967
3002.77485	2.11464
3000.84629	2.08066
2998.91772	2.04645
2996.98916	2.01214
2995.06060	1.97860
2993.13203	1.94612
2991.20347	1.91476
2989.27490	1.88453
2987.34634	1.85516
2985.41777	1.82645
2983.48921	1.79839
2981.56064	1.77077
2979.63208	1.74324
2977.70352	1.71583
2975.77495	1.68930
2973.84639	1.66408
2971.91782	1.63934
2969.98926	1.61432
2968.06069	1.58916
2966.13213	1.56460
2964.20356	1.54089
2962.27500	1.51699
2960.34644	1.49233
2958.41787	1.46747
2956.48931	1.44260
2954.56074	1.41769
2952.63218	1.39320
2950.70361	1.36935
2948.77505	1.34593
2946.84648	1.32293
2944.91792	1.30039
2942.98936	1.27844
2941.06079	1.25736
2939.13223	1.23627
2937.20366	1.21477
2935.27510	1.19403
2933.34653	1.17384
2931.41797	1.15266
2929.48940	1.13050
2927.56084	1.10881
2925.63228	1.08833
2923.70371	1.06924
2921.77515	1.05159
2919.84658	1.03456
2917.91802	1.01719
2915.98945	1.00006
2914.06089	0.98397
2912.13232	0.96816
2910.20376	0.95212
2908.27520	0.93646
2906.34663	0.92145
2904.41807	0.90656
2902.48950	0.89177
2900.56094	0.87754
2898.63237	0.86375
2896.70381	0.84980
2894.77524	0.83586
2892.84668	0.82276
2890.91812	0.81075
2888.98955	0.79942
2887.06099	0.78838
2885.13242	0.77743
2883.20386	0.76676
2881.27529	0.75680
2879.34673	0.74700
2877.41816	0.73668
2875.48960	0.72616
2873.56104	0.71561
2871.63247	0.70460
2869.70391	0.69271
2867.77534	0.68019
2865.84678	0.66749
2863.91821	0.65487
2861.98965	0.64264
2860.06108	0.63076
2858.13252	0.61901
2856.20396	0.60753
2854.27539	0.59671
2852.34683	0.58680
2850.41826	0.57801
2848.48970	0.57027
2846.56113	0.56287
2844.63257	0.55550
2842.70400	0.54854
2840.77544	0.54201
2838.84687	0.53565
2836.91831	0.52938
2834.98975	0.52314
2833.06118	0.51690
2831.13262	0.51063
2829.20405	0.50432
2827.27549	0.49804
2825.34692	0.49177
2823.41836	0.48543
2821.48979	0.47907
2819.56123	0.47276
2817.63267	0.46665
2815.70410	0.46084
2813.77554	0.45514
2811.84697	0.44932
2809.91841	0.44339
2807.98984	0.43761
2806.06128	0.43210
2804.13271	0.42669
2802.20415	0.42122
2800.27559	0.41588
2798.34702	0.41081
2796.41846	0.40574
2794.48989	0.40058
2792.56133	0.39565
2790.63276	0.39091
2788.70420	0.38613
2786.77563	0.38136
2784.84707	0.37676
2782.91851	0.37232
2780.98994	0.36792
2779.06138	0.36341
2777.13281	0.35895
2775.20425	0.35476
2773.27568	0.35079
2771.34712	0.34686
2769.41855	0.34284
2767.48999	0.33891
2765.56143	0.33526
2763.63286	0.33172
2761.70430	0.32817
2759.77573	0.32460
2757.84717	0.32111
2755.91860	0.31771
2753.99004	0.31425
2752.06147	0.31087
2750.13291	0.30786
2748.20435	0.30497
2746.27578	0.30191
2744.34722	0.29882
2742.41865	0.29573
2740.49009	0.29266
2738.56152	0.28982
2736.63296	0.28722
2734.70439	0.28463
2732.77583	0.28198
2730.84727	0.27934
2728.91870	0.27674
2726.99014	0.27417
2725.06157	0.27163
2723.13301	0.26913
2721.20444	0.26670
2719.27588	0.26449
2717.34731	0.26252
2715.41875	0.26050
2713.49019	0.25837
2711.56162	0.25635
2709.63306	0.25459
2707.70449	0.25296
2705.77593	0.25117
2703.84736	0.24920
2701.91880	0.24737
2699.99023	0.24580
2698.06167	0.24431
2696.13311	0.24278
2694.20454	0.24123
2692.27598	0.23971
2690.34741	0.23822
2688.41885	0.23676
2686.49028	0.23538
2684.56172	0.23406
2682.63315	0.23280
2680.70459	0.23160
2678.77603	0.23039
2676.84746	0.22920
2674.91890	0.22808
2672.99033	0.22696
2671.06177	0.22575
2669.13320	0.22460
2667.20464	0.22347
2665.27607	0.22227
2663.34751	0.22119
2661.41895	0.22022
2659.49038	0.21924
2657.56182	0.21832
2655.63325	0.21743
2653.70469	0.21654
2651.77612	0.21572
2649.84756	0.21504
2647.91899	0.21443
2645.99043	0.21382
2644.06187	0.21317
2642.13330	0.21249
2640.20474	0.21183
2638.27617	0.21124
2636.34761	0.21066
2634.41904	0.21004
2632.49048	0.20940
2630.56191	0.20883
2628.63335	0.20835
2626.70479	0.20791
2624.77622	0.20751
2622.84766	0.20726
2620.91909	0.20711
2618.99053	0.20691
2617.06196	0.20656
2615.13340	0.20619
2613.20483	0.20589
2611.27627	0.20551
2609.34771	0.20511
2607.41914	0.20488
2605.49058	0.20476
2603.56201	0.20455
2601.63345	0.20427
2599.70488	0.20414
2597.77632	0.20422
2595.84775	0.20433
2593.91919	0.20440
2591.99062	0.20445
2590.06206	0.20452
2588.13350	0.20455
2586.20493	0.20451
2584.27637	0.20453
2582.34780	0.20466
2580.41924	0.20480
2578.49067	0.20494
2576.56211	0.20505
2574.63354	0.20524
2572.70498	0.20559
2570.77642	0.20596
2568.84785	0.20617
2566.91929	0.20640
2564.99072	0.20673
2563.06216	0.20690
2561.13359	0.20695
2559.20503	0.20714
2557.27646	0.20755
2555.34790	0.20821
2553.41934	0.20899
2551.49077	0.20960
2549.56221	0.21000
2547.63364	0.21039
2545.70508	0.21087
2543.77651	0.21132
2541.84795	0.21171
2539.91938	0.21220
2537.99082	0.21277
2536.06226	0.21335
2534.13369	0.21399
2532.20513	0.21466
2530.27656	0.21527
2528.34800	0.21587
2526.41943	0.21650
2524.49087	0.21714
2522.56230	0.21778
2520.63374	0.21845
2518.70518	0.21920
2516.77661	0.22004
2514.84805	0.22083
2512.91948	0.22145
2510.99092	0.22202
2509.06235	0.22271
2507.13379	0.22351
2505.20522	0.22428
2503.27666	0.22500
2501.34810	0.22579
2499.41953	0.22666
2497.49097	0.22746
2495.56240	0.22817
2493.63384	0.22895
2491.70527	0.22977
2489.77671	0.23057
2487.84814	0.23141
2485.91958	0.23221
2483.99102	0.23295
2482.06245	0.23383
2480.13389	0.23480
2478.20532	0.23559
2476.27676	0.23618
2474.34819	0.23688
2472.41963	0.23772
2470.49106	0.23858
2468.56250	0.23945
2466.63394	0.24030
2464.70537	0.24115
2462.77681	0.24212
2460.84824	0.24316
2458.91968	0.24404
2456.99111	0.24479
2455.06255	0.24564
2453.13398	0.24658
2451.20542	0.24750
2449.27686	0.24847
2447.34829	0.24953
2445.41973	0.25057
2443.49116	0.25156
2441.56260	0.25249
2439.63403	0.25341
2437.70547	0.25429
2435.77690	0.25512
2433.84834	0.25601
2431.91978	0.25696
2429.99121	0.25804
2428.06265	0.25921
2426.13408	0.26024
2424.20552	0.26114
2422.27695	0.26208
2420.34839	0.26315
2418.41982	0.26430
2416.49126	0.26536
2414.56270	0.26634
2412.63413	0.26745
2410.70557	0.26866
2408.77700	0.26982
2406.84844	0.27092
2404.91987	0.27209
2402.99131	0.27332
2401.06274	0.27448
2399.13418	0.27565
2397.20562	0.27692
2395.27705	0.27820
2393.34849	0.27936
2391.41992	0.28046
2389.49136	0.28175
2387.56279	0.28344
2385.63423	0.28556
2383.70566	0.28801
2381.77710	0.29072
2379.84854	0.29366
2377.91997	0.29686
2375.99141	0.30044
2374.06284	0.30450
2372.13428	0.30893
2370.20571	0.31376
2368.27715	0.31877
2366.34858	0.32307
2364.42002	0.32649
2362.49146	0.33034
2360.56289	0.33478
2358.63433	0.33795
2356.70576	0.33847
2354.77720	0.33661
2352.84863	0.33375
2350.92007	0.33091
2348.99150	0.32932
2347.06294	0.32995
2345.13437	0.33360
2343.20581	0.33923
2341.27725	0.34300
2339.34868	0.34398
2337.42012	0.34401
2335.49155	0.34446
2333.56299	0.34547
2331.63442	0.34666
2329.70586	0.34785
2327.77729	0.34882
2325.84873	0.34942
2323.92017	0.35016
2321.99160	0.35098
2320.06304	0.35123
2318.13447	0.35105
2316.20591	0.35103
2314.27734	0.35156
2312.34878	0.35262
2310.42021	0.35377
2308.49165	0.35468
2306.56309	0.35538
2304.63452	0.35603
2302.70596	0.35681
2300.77739	0.35786
2298.84883	0.35912
2296.92026	0.36046
2294.99170	0.36186
2293.06313	0.36338
2291.13457	0.36492
2289.20601	0.36639
2287.27744	0.36780
2285.34888	0.36918
2283.42031	0.37072
2281.49175	0.37256
2279.56318	0.37467
2277.63462	0.37688
2275.70605	0.37907
2273.77749	0.38116
2271.84893	0.38317
2269.92036	0.38518
2267.99180	0.38728
2266.06323	0.38946
2264.13467	0.39158
2262.20610	0.39357
2260.27754	0.39553
2258.34897	0.39753
2256.42041	0.39959
2254.49185	0.40165
2252.56328	0.40371
2250.63472	0.40584
2248.70615	0.40809
2246.77759	0.41040
2244.84902	0.41256
2242.92046	0.41458
2240.99189	0.41675
2239.06333	0.41904
2237.13477	0.42120
2235.20620	0.42334
2233.27764	0.42563
2231.34907	0.42795
2229.42051	0.43012
2227.49194	0.43224
2225.56338	0.43445
2223.63481	0.43669
2221.70625	0.43893
2219.77769	0.44112
2217.84912	0.44325
2215.92056	0.44533
2213.99199	0.44740
2212.06343	0.44954
2210.13486	0.45173
2208.20630	0.45393
2206.27773	0.45614
2204.34917	0.45821
2202.42061	0.46013
2200.49204	0.46216
2198.56348	0.46427
2196.63491	0.46618
2194.70635	0.46797
2192.77778	0.46978
2190.84922	0.47168
2188.92065	0.47373
2186.99209	0.47566
2185.06353	0.47726
2183.13496	0.47875
2181.20640	0.48039
2179.27783	0.48208
2177.34927	0.48366
2175.42070	0.48521
2173.49214	0.48680
2171.56357	0.48833
2169.63501	0.48974
2167.70645	0.49101
2165.77788	0.49219
2163.84932	0.49332
2161.92075	0.49447
2159.99219	0.49560
2158.06362	0.49665
2156.13506	0.49763
2154.20649	0.49846
2152.27793	0.49916
2150.34937	0.49986
2148.42080	0.50050
2146.49224	0.50095
2144.56367	0.50116
2142.63511	0.50137
2140.70654	0.50176
2138.77798	0.50215
2136.84941	0.50229
2134.92085	0.50221
2132.99229	0.50209
2131.06372	0.50201
2129.13516	0.50181
2127.20659	0.50140
2125.27803	0.50086
2123.34946	0.50028
2121.42090	0.49979
2119.49233	0.49920
2117.56377	0.49833
2115.63521	0.49742
2113.70664	0.49663
2111.77808	0.49576
2109.84951	0.49472
2107.92095	0.49357
2105.99238	0.49224
2104.06382	0.49080
2102.13525	0.48939
2100.20669	0.48804
2098.27812	0.48659
2096.34956	0.48498
2094.42100	0.48330
2092.49243	0.48159
2090.56387	0.47985
2088.63530	0.47803
2086.70674	0.47612
2084.77817	0.47413
2082.84961	0.47212
2080.92104	0.47005
2078.99248	0.46796
2077.06392	0.46576
2075.13535	0.46345
2073.20679	0.46107
2071.27822	0.45859
2069.34966	0.45610
2067.42109	0.45370
2065.49253	0.45137
2063.56396	0.44887
2061.63540	0.44621
2059.70684	0.44352
2057.77827	0.44074
2055.84971	0.43798
2053.92114	0.43536
2051.99258	0.43283
2050.06401	0.43022
2048.13545	0.42749
2046.20688	0.42470
2044.27832	0.42192
2042.34976	0.41908
2040.42119	0.41614
2038.49263	0.41312
2036.56406	0.41020
2034.63550	0.40742
2032.70693	0.40463
2030.77837	0.40172
2028.84980	0.39871
2026.92124	0.39571
2024.99268	0.39276
2023.06411	0.38989
2021.13555	0.38709
2019.20698	0.38439
2017.27842	0.38159
2015.34985	0.37852
2013.42129	0.37536
2011.49272	0.37232
2009.56416	0.36955
2007.63560	0.36690
2005.70703	0.36410
2003.77847	0.36125
2001.84990	0.35859
1999.92134	0.35599
1997.99277	0.35321
1996.06421	0.35045
1994.13564	0.34814
1992.20708	0.34602
1990.27852	0.34341
1988.34995	0.34048
1986.42139	0.33763
1984.49282	0.33492
1982.56426	0.33238
1980.63569	0.32995
1978.70713	0.32762
1976.77856	0.32535
1974.85000	0.32304
1972.92144	0.32071
1970.99287	0.31854
1969.06431	0.31669
1967.13574	0.31488
1965.20718	0.31263
1963.27861	0.31024
1961.35005	0.30810
1959.42148	0.30607
1957.49292	0.30412
1955.56436	0.30231
1953.63579	0.30048
1951.70723	0.29853
1949.77866	0.29671
1947.85010	0.29514
1945.92153	0.29382
1943.99297	0.29273
1942.06440	0.29143
1940.13584	0.28945
1938.20728	0.28740
1936.27871	0.28581
1934.35015	0.28442
1932.42158	0.28303
1930.49302	0.28165
1928.56445	0.28043
1926.63589	0.27942
1924.70732	0.27887
1922.77876	0.27852
1920.85020	0.27765
1918.92163	0.27655
1916.99307	0.27540
1915.06450	0.27394
1913.13594	0.27265
1911.20737	0.27196
1909.27881	0.27149
1907.35024	0.27069
1905.42168	0.26966
1903.49312	0.26880
1901.56455	0.26814
1899.63599	0.26758
1897.70742	0.26724
1895.77886	0.26710
1893.85029	0.26678
1891.92173	0.26637
1889.99316	0.26635
1888.06460	0.26604
1886.13604	0.26525
1884.20747	0.26465
1882.27891	0.26430
1880.35034	0.26409
1878.42178	0.26394
1876.49321	0.26384
1874.56465	0.26382
1872.63608	0.26415
1870.70752	0.26524
1868.77896	0.26682
1866.85039	0.26701
1864.92183	0.26579
1862.99326	0.26497
1861.06470	0.26491
1859.13613	0.26519
1857.20757	0.26548
1855.27900	0.26589
1853.35044	0.26636
1851.42187	0.26687
1849.49331	0.26767
1847.56475	0.26893
1845.63618	0.27051
1843.70762	0.27183
1841.77905	0.27186
1839.85049	0.27147
1837.92192	0.27197
1835.99336	0.27286
1834.06479	0.27373
1832.13623	0.27516
1830.20767	0.27751
1828.27910	0.27930
1826.35054	0.27997
1824.42197	0.28078
1822.49341	0.28143
1820.56484	0.28209
1818.63628	0.28333
1816.70771	0.28500
1814.77915	0.28667
1812.85059	0.28881
1810.92202	0.29145
1808.99346	0.29349
1807.06489	0.29486
1805.13633	0.29646
1803.20776	0.29896
1801.27920	0.30210
1799.35063	0.30513
1797.42207	0.30746
1795.49351	0.30993
1793.56494	0.31340
1791.63638	0.31748
1789.70781	0.32011
1787.77925	0.32171
1785.85068	0.32453
1783.92212	0.32840
1781.99355	0.33269
1780.06499	0.33704
1778.13643	0.34115
1776.20786	0.34540
1774.27930	0.35084
1772.35073	0.35800
1770.42217	0.36418
1768.49360	0.36819
1766.56504	0.37216
1764.63647	0.37696
1762.70791	0.38317
1760.77935	0.39103
1758.85078	0.39793
1756.92222	0.40472
1754.99365	0.41215
1753.06509	0.41937
1751.13652	0.42887
1749.20796	0.44064
1747.27939	0.45098
1745.35083	0.45952
1743.42227	0.46884
1741.49370	0.47931
1739.56514	0.49162
1737.63657	0.50394
1735.70801	0.51532
1733.77944	0.53309
1731.85088	0.55302
1729.92231	0.56750
1727.99375	0.58212
1726.06519	0.59849
1724.13662	0.61727
1722.20806	0.63788
1720.27949	0.65733
1718.35093	0.68099
1716.42236	0.71506
1714.49380	0.74508
1712.56523	0.76837
1710.63667	0.79182
1708.70811	0.81817
1706.77954	0.84892
1704.85098	0.88558
1702.92241	0.91793
1700.99385	0.95032
1699.06528	0.99933
1697.13672	1.04438
1695.20815	1.08949
1693.27959	1.13319
1691.35103	1.16934
1689.42246	1.21254
1687.49390	1.25898
1685.56533	1.30441
1683.63677	1.37374
1681.70820	1.44430
1679.77964	1.48831
1677.85107	1.53075
1675.92251	1.58089
1673.99395	1.64394
1672.06538	1.70051
1670.13682	1.75649
1668.20825	1.82928
1666.27969	1.88798
1664.35112	1.93904
1662.42256	2.00522
1660.49399	2.08131
1658.56543	2.14036
1656.63687	2.18796
1654.70830	2.23200
1652.77974	2.30031
1650.85117	2.36263
1648.92261	2.38027
1646.99404	2.40040
1645.06548	2.41826
1643.13691	2.43051
1641.20835	2.43840
1639.27979	2.44868
1637.35122	2.45442
1635.42266	2.44708
1633.49409	2.43089
1631.56553	2.41407
1629.63696	2.39581
1627.70840	2.36339
1625.77983	2.32600
1623.85127	2.28067
1621.92271	2.22548
1619.99414	2.17673
1618.06558	2.13003
1616.13701	2.06230
1614.20845	1.99213
1612.27988	1.93897
1610.35132	1.88442
1608.42275	1.82639
1606.49419	1.76998
1604.56562	1.71779
1602.63706	1.66673
1600.70850	1.61710
1598.77993	1.57216
1596.85137	1.53103
1594.92280	1.49151
1592.99424	1.45277
1591.06567	1.41719
1589.13711	1.38430
1587.20854	1.35403
1585.27998	1.32655
1583.35142	1.30181
1581.42285	1.28020
1579.49429	1.26264
1577.56572	1.24802
1575.63716	1.23042
1573.70859	1.21391
1571.78003	1.20370
1569.85146	1.19556
1567.92290	1.18732
1565.99434	1.18156
1564.06577	1.17888
1562.13721	1.17855
1560.20864	1.18231
1558.28008	1.19422
1556.35151	1.20253
1554.42295	1.20553
1552.49438	1.20961
1550.56582	1.21254
1548.63726	1.21245
1546.70869	1.20907
1544.78013	1.20213
1542.85156	1.19129
1540.92300	1.17236
1538.99443	1.13756
1537.06587	1.10987
1535.13730	1.09157
1533.20874	1.06816
1531.28018	1.04282
1529.35161	1.02431
1527.42305	1.00756
1525.49448	0.99053
1523.56592	0.97633
1521.63735	0.96327
1519.70879	0.94954
1517.78022	0.93779
1515.85166	0.92378
1513.92310	0.90792
1511.99453	0.89419
1510.06597	0.88334
1508.13740	0.87403
1506.20884	0.85571
1504.28027	0.83654
1502.35171	0.82625
1500.42314	0.81864
1498.49458	0.81111
1496.56602	0.80175
1494.63745	0.79140
1492.70889	0.78367
1490.78032	0.77832
1488.85176	0.77229
1486.92319	0.76480
1484.99463	0.75832
1483.06606	0.75390
1481.13750	0.75086
1479.20894	0.74879
1477.28037	0.74831
1475.35181	0.74971
1473.42324	0.75185
1471.49468	0.75144
1469.56611	0.74821
1467.63755	0.74532
1465.70898	0.74361
1463.78042	0.74234
1461.85186	0.74159
1459.92329	0.74266
1457.99473	0.74607
1456.06616	0.74737
1454.13760	0.74336
1452.20903	0.73908
1450.28047	0.73568
1448.35190	0.73293
1446.42334	0.72983
1444.49478	0.72623
1442.56621	0.72279
1440.63765	0.71977
1438.70908	0.71731
1436.78052	0.71420
1434.85195	0.70935
1432.92339	0.70519
1430.99482	0.70294
1429.06626	0.70193
1427.13770	0.70174
1425.20913	0.70275
1423.28057	0.70460
1421.35200	0.70625
1419.42344	0.70792
1417.49487	0.70850
1415.56631	0.70704
1413.63774	0.70582
1411.70918	0.70597
1409.78062	0.70737
1407.85205	0.70952
1405.92349	0.71221
1403.99492	0.71458
1402.06636	0.71555
1400.13779	0.71556
1398.20923	0.71453
1396.28066	0.71184
1394.35210	0.70712
1392.42354	0.70101
1390.49497	0.69542
1388.56641	0.69049
1386.63784	0.68475
1384.70928	0.67794
1382.78071	0.67131
1380.85215	0.66540
1378.92358	0.66066
1376.99502	0.65752
1375.06646	0.65568
1373.13789	0.65397
1371.20933	0.65229
1369.28076	0.65106
1367.35220	0.64961
1365.42363	0.64798
1363.49507	0.64684
1361.56650	0.64528
1359.63794	0.64278
1357.70937	0.64064
1355.78081	0.63919
1353.85225	0.63794
1351.92368	0.63688
1349.99512	0.63626
1348.06655	0.63571
1346.13799	0.63474
1344.20942	0.63374
1342.28086	0.63342
1340.35229	0.63376
1338.42373	0.63356
1336.49517	0.63250
1334.56660	0.63155
1332.63804	0.63121
1330.70947	0.63149
1328.78091	0.63222
1326.85234	0.63317
1324.92378	0.63435
1322.99521	0.63577
1321.06665	0.63724
1319.13809	0.63851
1317.20952	0.63922
1315.28096	0.63941
1313.35239	0.63918
1311.42383	0.63845
1309.49526	0.63761
1307.56670	0.63707
1305.63813	0.63658
1303.70957	0.63594
1301.78101	0.63518
1299.85244	0.63415
1297.92388	0.63282
1295.99531	0.63138
1294.06675	0.62993
1292.13818	0.62837
1290.20962	0.62669
1288.28105	0.62496
1286.35249	0.62318
1284.42393	0.62137
1282.49536	0.61972
1280.56680	0.61820
1278.63823	0.61658
1276.70967	0.61499
1274.78110	0.61370
1272.85254	0.61273
1270.92397	0.61183
1268.99541	0.61086
1267.06685	0.60995
1265.13828	0.60904
1263.20972	0.60801
1261.28115	0.60701
1259.35259	0.60610
1257.42402	0.60530
1255.49546	0.60469
1253.56689	0.60449
1251.63833	0.60468
1249.70977	0.60497
1247.78120	0.60508
1245.85264	0.60491
1243.92407	0.60427
1241.99551	0.60311
1240.06694	0.60147
1238.13838	0.59941
1236.20981	0.59692
1234.28125	0.59413
1232.35269	0.59117
1230.42412	0.58827
1228.49556	0.58568
1226.56699	0.58328
1224.63843	0.58082
1222.70986	0.57840
1220.78130	0.57624
1218.85273	0.57444
1216.92417	0.57299
1214.99561	0.57172
1213.06704	0.57048
1211.13848	0.56928
1209.20991	0.56831
1207.28135	0.56760
1205.35278	0.56677
1203.42422	0.56564
1201.49565	0.56451
1199.56709	0.56352
1197.63853	0.56249
1195.70996	0.56142
1193.78140	0.56061
1191.85283	0.56002
1189.92427	0.55953
1187.99570	0.55905
1186.06714	0.55855
1184.13857	0.55832
1182.21001	0.55880
1180.28145	0.56004
1178.35288	0.56182
1176.42432	0.56373
1174.49575	0.56535
1172.56719	0.56648
1170.63862	0.56696
1168.71006	0.56690
1166.78149	0.56673
1164.85293	0.56671
1162.92437	0.56657
1160.99580	0.56603
1159.06724	0.56526
1157.13867	0.56446
1155.21011	0.56340
1153.28154	0.56187
1151.35298	0.55997
1149.42441	0.55768
1147.49585	0.55486
1145.56729	0.55171
1143.63872	0.54866
1141.71016	0.54603
1139.78159	0.54400
1137.85303	0.54258
1135.92446	0.54170
1133.99590	0.54127
1132.06733	0.54107
1130.13877	0.54082
1128.21021	0.54056
1126.28164	0.54037
1124.35308	0.54021
1122.42451	0.53992
1120.49595	0.53947
1118.56738	0.53899
1116.63882	0.53885
1114.71025	0.53905
1112.78169	0.53942
1110.85312	0.54001
1108.92456	0.54085
1106.99600	0.54183
1105.06743	0.54303
1103.13887	0.54448
1101.21030	0.54610
1099.28174	0.54790
1097.35317	0.54985
1095.42461	0.55230
1093.49604	0.55578
1091.56748	0.56022
1089.63892	0.56531
1087.71035	0.57105
1085.78179	0.57756
1083.85322	0.58456
1081.92466	0.59120
1079.99609	0.59624
1078.06753	0.59904
1076.13896	0.59962
1074.21040	0.59797
1072.28184	0.59389
1070.35327	0.58773
1068.42471	0.58084
1066.49614	0.57411
1064.56758	0.56759
1062.63901	0.56147
1060.71045	0.55605
1058.78188	0.55146
1056.85332	0.54735
1054.92476	0.54353
1052.99619	0.54004
1051.06763	0.53687
1049.13906	0.53420
1047.21050	0.53225
1045.28193	0.53087
1043.35337	0.52956
1041.42480	0.52806
1039.49624	0.52661
1037.56768	0.52548
1035.63911	0.52476
1033.71055	0.52427
1031.78198	0.52368
1029.85342	0.52300
1027.92485	0.52236
1025.99629	0.52177
1024.06772	0.52139
1022.13916	0.52130
1020.21060	0.52134
1018.28203	0.52148
1016.35347	0.52178
1014.42490	0.52221
1012.49634	0.52262
1010.56777	0.52308
1008.63921	0.52377
1006.71064	0.52478
1004.78208	0.52633
1002.85352	0.52857
1000.92495	0.53133
998.99639	0.53454
997.06782	0.53828
995.13926	0.54230
993.21069	0.54611
991.28213	0.54942
989.35356	0.55191
987.42500	0.55322
985.49644	0.55366
983.56787	0.55383
981.63931	0.55409
979.71074	0.55470
977.78218	0.55589
975.85361	0.55776
973.92505	0.56024
971.99648	0.56318
970.06792	0.56660
968.13936	0.57036
966.21079	0.57440
964.28223	0.57877
962.35366	0.58338
960.42510	0.58820
958.49653	0.59336
956.56797	0.59891
954.63940	0.60471
952.71084	0.61066
950.78228	0.61691
948.85371	0.62328
946.92515	0.62949
944.99658	0.63594
943.06802	0.64259
941.13945	0.64876
939.21089	0.65421
937.28232	0.65931
935.35376	0.66485
933.42520	0.67120
931.49663	0.67759
929.56807	0.68315
927.63950	0.68833
925.71094	0.69406
923.78237	0.70064
921.85381	0.70759
919.92524	0.71425
917.99668	0.72090
916.06812	0.72836
914.13955	0.73618
912.21099	0.74373
910.28242	0.75152
908.35386	0.76006
906.42529	0.76919
904.49673	0.77842
902.56816	0.78724
900.63960	0.79620
898.71104	0.80597
896.78247	0.81618
894.85391	0.82677
892.92534	0.83741
890.99678	0.84684
889.06821	0.85600
887.13965	0.86635
885.21108	0.87773
883.28252	0.89050
881.35396	0.90353
879.42539	0.91514
877.49683	0.92641
875.56826	0.93790
873.63970	0.94900
871.71113	0.96088
869.78257	0.97304
867.85400	0.98399
865.92544	0.99599
863.99687	1.00936
862.06831	1.02156
860.13975	1.03260
858.21118	1.04303
856.28262	1.05316
854.35405	1.06378
852.42549	1.07540
850.49692	1.08734
848.56836	1.09845
846.63979	1.11023
844.71123	1.12405
842.78267	1.13869
840.85410	1.15244
838.92554	1.16232
836.99697	1.17090
835.06841	1.18412
833.13984	1.19832
831.21128	1.20887
829.28271	1.21878
827.35415	1.22932
825.42559	1.23787
823.49702	1.24575
821.56846	1.25618
819.63989	1.26644
817.71133	1.27366
815.78276	1.28227
813.85420	1.29776
811.92563	1.32124
809.99707	1.34903
808.06851	1.37407
806.13994	1.38413
804.21138	1.37522
802.28281	1.36570
800.35425	1.36248
798.42568	1.36752
796.49712	1.38714
794.56855	1.39384
792.63999	1.37892
790.71143	1.38096
788.78286	1.39114
786.85430	1.38608
784.92573	1.41129
782.99717	1.48287
781.06860	1.50791
779.14004	1.44446
777.21147	1.39347
775.28291	1.36791
773.35435	1.33682
771.42578	1.34573
769.49722	1.40987
767.56865	1.49090
765.64009	1.55223
763.71152	1.51160
761.78296	1.38239
759.85439	1.29458
757.92583	1.26631
755.99727	1.24599
754.06870	1.23670
752.14014	1.28824
750.21157	1.45064
748.28301	1.60331
746.35444	1.38011
744.42588	1.11468
742.49731	0.94627
740.56875	0.86478
738.64019	0.85896
736.71162	0.89996
734.78306	0.90655
732.85449	0.79173
730.92593	0.71020
728.99736	0.83051
727.06880	0.94495
725.14023	0.75018
723.21167	0.61300
721.28311	0.36877
719.35454	0.11364
717.42598	-0.01731
715.49741	0.07983
713.56885	4.28141
711.64028	4.26984
709.71172	0.56083
707.78315	0.02596
705.85459	0.03528
703.92603	0.33259
701.99746	0.46826
700.06890	0.33814
698.14033	0.31372
696.21177	0.34395
694.28320	0.42270
692.35464	0.59389
690.42607	0.70860
688.49751	0.52177
686.56895	0.29352
684.64038	0.20199
682.71182	0.27049
680.78325	0.36472
678.85469	0.41224
676.92612	0.47715
674.99756	0.61014
673.06899	0.93007
671.14043	1.22072
669.21187	0.68493
667.28330	0.49392
665.35474	0.42713
663.42617	0.34468
661.49761	0.28008
659.56904	0.32383
657.64048	0.48560
655.71191	0.56035
653.78335	0.44126
651.85479	0.39288
649.92622	0.38014
647.99766	0.26525
646.06909	0.19570
644.14053	0.21267
642.21196	0.24904
640.28340	0.30657
638.35483	0.36360
636.42627	0.34181
634.49771	0.28440
632.56914	0.26906
630.64058	0.34931
628.71201	0.46557
626.78345	0.43330
624.85488	0.39319
622.92632	0.44936
620.99775	0.48165
619.06919	0.42315
617.14062	0.41296
615.21206	0.38544
613.28350	0.29481
611.35493	0.25578
609.42637	0.29251
607.49780	0.30159
605.56924	0.27209
603.64067	0.25813
601.71211	0.25250
599.78354	0.29130
597.85498	0.38631
595.92642	0.41548
593.99785	0.38114
592.06929	0.44163
590.14072	0.59378
588.21216	0.55330
586.28359	0.33601
584.35503	0.18126
582.42646	0.15756
580.49790	0.24783
578.56934	0.32588
576.64077	0.32753
574.71221	0.33946
572.78364	0.42445
570.85508	0.47061
568.92651	0.36957
566.99795	0.33291
565.06938	0.40483
563.14082	0.38535
561.21226	0.30387
559.28369	0.32535
557.35513	0.47943
555.42656	0.63240
553.49800	0.46421
551.56943	0.34632
549.64087	0.31231
547.71230	0.32385
545.78374	0.39402
543.85518	0.46654
541.92661	0.43034
539.99805	0.38499
538.06948	0.41049
536.14092	0.43153
534.21235	0.42655
532.28379	0.48770
530.35522	0.55688
528.42666	0.52014
526.49810	0.53654
524.56953	0.58373
522.64097	0.49128
520.71240	0.36236
518.78384	0.27448
516.85527	0.23837
514.92671	0.23914
512.99814	0.25457
511.06958	0.27829
509.14102	0.29748
507.21245	0.29756
505.28389	0.30040
503.35532	0.31407
501.42676	0.31850
499.49819	0.30517
