3997.91411	0.05713
3995.98555	0.05777
3994.05698	0.05865
3992.12842	0.05927
3990.19985	0.05948
3988.27129	0.05920
3986.34272	0.05858
3984.41416	0.05833
3982.48560	0.05850
3980.55703	0.05870
3978.62847	0.05900
3976.69990	0.05952
3974.77134	0.06006
3972.84277	0.06051
3970.91421	0.06107
3968.98564	0.06142
3967.05708	0.06128
3965.12852	0.06125
3963.19995	0.06158
3961.27139	0.06192
3959.34282	0.06198
3957.41426	0.06183
3955.48569	0.06178
3953.55713	0.06193
3951.62856	0.06257
3949.70000	0.06376
3947.77144	0.06446
3945.84287	0.06409
3943.91431	0.06395
3941.98574	0.06433
3940.05718	0.06378
3938.12861	0.06248
3936.20005	0.06182
3934.27148	0.06251
3932.34292	0.06425
3930.41436	0.06546
3928.48579	0.06508
3926.55723	0.06435
3924.62866	0.06455
3922.70010	0.06447
3920.77153	0.06355
3918.84297	0.06356
3916.91440	0.06436
3914.98584	0.06384
3913.05728	0.06209
3911.12871	0.06082
3909.20015	0.06051
3907.27158	0.06156
3905.34302	0.06481
3903.41445	0.06924
3901.48589	0.07164
3899.55732	0.07089
3897.62876	0.06785
3895.70020	0.06461
3893.77163	0.06381
3891.84307	0.06565
3889.91450	0.06662
3887.98594	0.06550
3886.05737	0.06580
3884.12881	0.06744
3882.20024	0.06805
3880.27168	0.06807
3878.34312	0.06669
3876.41455	0.06477
3874.48599	0.06545
3872.55742	0.06838
3870.62886	0.07125
3868.70029	0.07236
3866.77173	0.07133
3864.84316	0.07138
3862.91460	0.07265
3860.98604	0.07147
3859.05747	0.06912
3857.12891	0.06897
3855.20034	0.07187
3853.27178	0.07766
3851.34321	0.07997
3849.41465	0.07509
3847.48608	0.07047
3845.55752	0.06902
3843.62896	0.07100
3841.70039	0.07504
3839.77183	0.07912
3837.84326	0.08194
3835.91470	0.08170
3833.98613	0.07948
3832.05757	0.07741
3830.12900	0.07580
3828.20044	0.07529
3826.27187	0.07626
3824.34331	0.07786
3822.41475	0.08089
3820.48618	0.08582
3818.55762	0.08743
3816.62905	0.08576
3814.70049	0.08379
3812.77192	0.08110
3810.84336	0.07963
3808.91479	0.08087
3806.98623	0.08437
3805.05767	0.08743
3803.12910	0.08953
3801.20054	0.09295
3799.27197	0.09463
3797.34341	0.09310
3795.41484	0.09143
3793.48628	0.08974
3791.55771	0.08865
3789.62915	0.08893
3787.70059	0.09025
3785.77202	0.09252
3783.84346	0.09488
3781.91489	0.09623
3779.98633	0.09769
3778.05776	0.09923
3776.12920	0.09906
3774.20063	0.09869
3772.27207	0.10032
3770.34351	0.10413
3768.41494	0.10791
3766.48638	0.10977
3764.55781	0.11083
3762.62925	0.11165
3760.70068	0.11354
3758.77212	0.11760
3756.84355	0.12139
3754.91499	0.12351
3752.98643	0.12710
3751.05786	0.13429
3749.12930	0.14053
3747.20073	0.14137
3745.27217	0.14217
3743.34360	0.14482
3741.41504	0.14648
3739.48647	0.14837
3737.55791	0.15321
3735.62935	0.16167
3733.70078	0.16912
3731.77222	0.16979
3729.84365	0.16832
3727.91509	0.16984
3725.98652	0.17496
3724.05796	0.18142
3722.12939	0.18690
3720.20083	0.19130
3718.27227	0.19506
3716.34370	0.19935
3714.41514	0.20563
3712.48657	0.21601
3710.55801	0.23074
3708.62944	0.24244
3706.70088	0.24906
3704.77231	0.25656
3702.84375	0.26798
3700.91519	0.28327
3698.98662	0.29849
3697.05806	0.31224
3695.12949	0.32737
3693.20093	0.34448
3691.27236	0.36486
3689.34380	0.39132
3687.41523	0.41982
3685.48667	0.44214
3683.55811	0.46182
3681.62954	0.48460
3679.70098	0.51223
3677.77241	0.54319
3675.84385	0.58034
3673.91528	0.62651
3671.98672	0.66182
3670.05815	0.69421
3668.12959	0.73772
3666.20103	0.77523
3664.27246	0.80705
3662.34390	0.84276
3660.41533	0.88236
3658.48677	0.92257
3656.55820	0.96604
3654.62964	1.01354
3652.70107	1.05368
3650.77251	1.09137
3648.84395	1.14341
3646.91538	1.20050
3644.98682	1.23820
3643.05825	1.26744
3641.12969	1.29955
3639.20112	1.33697
3637.27256	1.37584
3635.34399	1.41368
3633.41543	1.45140
3631.48687	1.48753
3629.55830	1.52563
3627.62974	1.57392
3625.70117	1.61510
3623.77261	1.64172
3621.84404	1.66866
3619.91548	1.70200
3617.98691	1.74251
3616.05835	1.77936
3614.12979	1.80972
3612.20122	1.84237
3610.27266	1.87541
3608.34409	1.90955
3606.41553	1.94648
3604.48696	1.97975
3602.55840	2.00962
3600.62983	2.04294
3598.70127	2.07875
3596.77271	2.11236
3594.84414	2.14595
3592.91558	2.18076
3590.98701	2.21389
3589.05845	2.24698
3587.12988	2.28695
3585.20132	2.32752
3583.27275	2.35998
3581.34419	2.39070
3579.41562	2.42459
3577.48706	2.46157
3575.55850	2.49938
3573.62993	2.53701
3571.70137	2.57362
3569.77280	2.60998
3567.84424	2.65033
3565.91567	2.69749
3563.98711	2.73954
3562.05854	2.77265
3560.12998	2.80594
3558.20142	2.84315
3556.27285	2.88243
3554.34429	2.92022
3552.41572	2.95911
3550.48716	3.00077
3548.55859	3.04184
3546.63003	3.08184
3544.70146	3.12282
3542.77290	3.16352
3540.84434	3.20279
3538.91577	3.24213
3536.98721	3.28287
3535.05864	3.32527
3533.13008	3.36610
3531.20151	3.40578
3529.27295	3.44746
3527.34438	3.49100
3525.41582	3.53277
3523.48726	3.57206
3521.55869	3.61170
3519.63013	3.65359
3517.70156	3.69864
3515.77300	3.74221
3513.84443	3.78076
3511.91587	3.81828
3509.98730	3.85998
3508.05874	3.90449
3506.13018	3.94657
3504.20161	3.98703
3502.27305	4.02844
3500.34448	4.06916
3498.41592	4.10928
3496.48735	4.15272
3494.55879	4.19714
3492.63022	4.23571
3490.70166	4.27187
3488.77310	4.31306
3486.84453	4.35811
3484.91597	4.40134
3482.98740	4.44128
3481.05884	4.48156
3479.13027	4.52226
3477.20171	4.56220
3475.27314	4.60395
3473.34458	4.64549
3471.41602	4.68333
3469.48745	4.72318
3467.55889	4.76899
3465.63032	4.81290
3463.70176	4.85005
3461.77319	4.88668
3459.84463	4.93207
3457.91606	4.98137
3455.98750	5.02349
3454.05894	5.06187
3452.13037	5.10515
3450.20181	5.15278
3448.27324	5.19950
3446.34468	5.24623
3444.41611	5.29580
3442.48755	5.34480
3440.55898	5.38559
3438.63042	5.42416
3436.70186	5.46408
3434.77329	5.49892
3432.84473	5.53359
3430.91616	5.57615
3428.98760	5.62607
3427.05903	5.67081
3425.13047	5.70606
3423.20190	5.74032
3421.27334	5.78409
3419.34478	5.83139
3417.41621	5.87102
3415.48765	5.90088
3413.55908	5.92403
3411.63052	5.95641
3409.70195	5.99890
3407.77339	6.04957
3405.84482	6.10055
3403.91626	6.14567
3401.98770	6.18906
3400.05913	6.21554
3398.13057	6.23124
3396.20200	6.26502
3394.27344	6.29937
3392.34487	6.30696
3390.41631	6.32728
3388.48774	6.38283
3386.55918	6.43345
3384.63062	6.44197
3382.70205	6.43723
3380.77349	6.45829
3378.84492	6.49562
3376.91636	6.53124
3374.98779	6.55542
3373.05923	6.58187
3371.13066	6.61423
3369.20210	6.64231
3367.27354	6.66982
3365.34497	6.71031
3363.41641	6.75024
3361.48784	6.75987
3359.55928	6.74585
3357.63071	6.73803
3355.70215	6.76713
3353.77358	6.80801
3351.84502	6.82802
3349.91646	6.84188
3347.98789	6.86031
3346.05933	6.87482
3344.13076	6.88010
3342.20220	6.87685
3340.27363	6.87431
3338.34507	6.88335
3336.41650	6.90664
3334.48794	6.94628
3332.55937	6.95444
3330.63081	6.92408
3328.70225	6.91359
3326.77368	6.94039
3324.84512	6.97135
3322.91655	6.97943
3320.98799	6.99441
3319.05942	7.02332
3317.13086	7.02871
3315.20229	6.98673
3313.27373	6.95572
3311.34517	6.98825
3309.41660	7.04092
3307.48804	7.06163
3305.55947	7.05864
3303.63091	7.05895
3301.70234	7.06243
3299.77378	7.07792
3297.84521	7.08776
3295.91665	7.06917
3293.98809	7.05049
3292.05952	7.05828
3290.13096	7.06328
3288.20239	7.04556
3286.27383	7.05718
3284.34526	7.10520
3282.41670	7.14879
3280.48813	7.15171
3278.55957	7.12308
3276.63101	7.12590
3274.70244	7.15002
3272.77388	7.14854
3270.84531	7.15508
3268.91675	7.15227
3266.98818	7.09837
3265.05962	7.08970
3263.13105	7.17734
3261.20249	7.27417
3259.27393	7.30115
3257.34536	7.26441
3255.41680	7.20231
3253.48823	7.13167
3251.55967	7.06335
3249.63110	7.04282
3247.70254	7.08682
3245.77397	7.13750
3243.84541	7.14619
3241.91685	7.11020
3239.98828	7.05403
3238.05972	7.02202
3236.13115	7.04311
3234.20259	7.07218
3232.27402	7.05299
3230.34546	7.01110
3228.41689	6.97186
3226.48833	6.94453
3224.55977	6.94990
3222.63120	6.97126
3220.70264	6.97012
3218.77407	6.95902
3216.84551	6.95648
3214.91694	6.93956
3212.98838	6.92103
3211.05981	6.93762
3209.13125	6.93515
3207.20269	6.84995
3205.27412	6.76410
3203.34556	6.75379
3201.41699	6.77824
3199.48843	6.77712
3197.55986	6.75309
3195.63130	6.72167
3193.70273	6.67606
3191.77417	6.62900
3189.84561	6.58348
3187.91704	6.52952
3185.98848	6.48574
3184.05991	6.45784
3182.13135	6.42777
3180.20278	6.37940
3178.27422	6.30916
3176.34565	6.23805
3174.41709	6.17991
3172.48853	6.12704
3170.55996	6.07673
3168.63140	6.03744
3166.70283	6.00315
3164.77427	5.95600
3162.84570	5.89715
3160.91714	5.83873
3158.98857	5.78685
3157.06001	5.73839
3155.13145	5.68348
3153.20288	5.61853
3151.27432	5.55870
3149.34575	5.50814
3147.41719	5.45266
3145.48862	5.39312
3143.56006	5.33429
3141.63149	5.27740
3139.70293	5.22481
3137.77437	5.17530
3135.84580	5.12307
3133.91724	5.05890
3131.98867	4.98741
3130.06011	4.92263
3128.13154	4.86292
3126.20298	4.79939
3124.27441	4.73358
3122.34585	4.67144
3120.41729	4.61164
3118.48872	4.54999
3116.56016	4.48888
3114.63159	4.42929
3112.70303	4.37048
3110.77446	4.31199
3108.84590	4.24962
3106.91733	4.18663
3104.98877	4.12896
3103.06021	4.07266
3101.13164	4.01496
3099.20308	3.95856
3097.27451	3.90113
3095.34595	3.84252
3093.41738	3.78931
3091.48882	3.73966
3089.56025	3.68519
3087.63169	3.62552
3085.70312	3.56866
3083.77456	3.51871
3081.84600	3.47017
3079.91743	3.41778
3077.98887	3.36398
3076.06030	3.31249
3074.13174	3.26210
3072.20317	3.21147
3070.27461	3.16178
3068.34604	3.11277
3066.41748	3.06351
3064.48892	3.01461
3062.56035	2.96703
3060.63179	2.92109
3058.70322	2.87539
3056.77466	2.82880
3054.84609	2.78243
3052.91753	2.73660
3050.98896	2.69099
3049.06040	2.64690
3047.13184	2.60448
3045.20327	2.56187
3043.27471	2.51937
3041.34614	2.47767
3039.41758	2.43582
3037.48901	2.39448
3035.56045	2.35461
3033.63188	2.31572
3031.70332	2.27727
3029.77476	2.23869
3027.84619	2.20010
3025.91763	2.16216
3023.98906	2.12521
3022.06050	2.08938
3020.13193	2.05368
3018.20337	2.01764
3016.27480	1.98248
3014.34624	1.94837
3012.41768	1.91445
3010.48911	1.88097
3008.56055	1.84843
3006.63198	1.81665
3004.70342	1.78550
3002.77485	1.75489
3000.84629	1.72478
2998.91772	1.69517
2996.98916	1.66612
2995.06060	1.63772
2993.13203	1.61008
2991.20347	1.58352
2989.27490	1.55766
2987.34634	1.53201
2985.41777	1.50675
2983.48921	1.48201
2981.56064	1.45788
2979.63208	1.43435
2977.70352	1.41122
2975.77495	1.38851
2973.84639	1.36665
2971.91782	1.34545
2969.98926	1.32425
2968.06069	1.30288
2966.13213	1.28156
2964.20356	1.26088
2962.27500	1.24087
2960.34644	1.22071
2958.41787	1.20035
2956.48931	1.17995
2954.56074	1.15909
2952.63218	1.13795
2950.70361	1.11710
2948.77505	1.09679
2946.84648	1.07724
2944.91792	1.05834
2942.98936	1.03972
2941.06079	1.02148
2939.13223	1.00411
2937.20366	0.98749
2935.27510	0.97084
2933.34653	0.95414
2931.41797	0.93767
2929.48940	0.92116
2927.56084	0.90486
2925.63228	0.88915
2923.70371	0.87373
2921.77515	0.85825
2919.84658	0.84264
2917.91802	0.82694
2915.98945	0.81092
2914.06089	0.79435
2912.13232	0.77812
2910.20376	0.76311
2908.27520	0.74909
2906.34663	0.73564
2904.41807	0.72248
2902.48950	0.70969
2900.56094	0.69758
2898.63237	0.68585
2896.70381	0.67393
2894.77524	0.66202
2892.84668	0.65050
2890.91812	0.63949
2888.98955	0.62927
2887.06099	0.61960
2885.13242	0.61001
2883.20386	0.60064
2881.27529	0.59186
2879.34673	0.58366
2877.41816	0.57558
2875.48960	0.56735
2873.56104	0.55895
2871.63247	0.55026
2869.70391	0.54069
2867.77534	0.53022
2865.84678	0.51968
2863.91821	0.50944
2861.98965	0.49931
2860.06108	0.48958
2858.13252	0.48084
2856.20396	0.47293
2854.27539	0.46538
2852.34683	0.45779
2850.41826	0.44980
2848.48970	0.44168
2846.56113	0.43407
2844.63257	0.42721
2842.70400	0.42082
2840.77544	0.41461
2838.84687	0.40863
2836.91831	0.40301
2834.98975	0.39764
2833.06118	0.39231
2831.13262	0.38703
2829.20405	0.38182
2827.27549	0.37654
2825.34692	0.37118
2823.41836	0.36583
2821.48979	0.36054
2819.56123	0.35524
2817.63267	0.34997
2815.70410	0.34501
2813.77554	0.34032
2811.84697	0.33561
2809.91841	0.33083
2807.98984	0.32614
2806.06128	0.32152
2804.13271	0.31681
2802.20415	0.31217
2800.27559	0.30776
2798.34702	0.30346
2796.41846	0.29929
2794.48989	0.29531
2792.56133	0.29132
2790.63276	0.28732
2788.70420	0.28338
2786.77563	0.27952
2784.84707	0.27584
2782.91851	0.27219
2780.98994	0.26842
2779.06138	0.26480
2777.13281	0.26146
2775.20425	0.25806
2773.27568	0.25449
2771.34712	0.25110
2769.41855	0.24803
2767.48999	0.24501
2765.56143	0.24191
2763.63286	0.23878
2761.70430	0.23579
2759.77573	0.23290
2757.84717	0.22999
2755.91860	0.22707
2753.99004	0.22430
2752.06147	0.22177
2750.13291	0.21944
2748.20435	0.21714
2746.27578	0.21466
2744.34722	0.21212
2742.41865	0.20970
2740.49009	0.20730
2738.56152	0.20486
2736.63296	0.20240
2734.70439	0.20003
2732.77583	0.19781
2730.84727	0.19573
2728.91870	0.19377
2726.99014	0.19193
2725.06157	0.19010
2723.13301	0.18816
2721.20444	0.18626
2719.27588	0.18445
2717.34731	0.18260
2715.41875	0.18080
2713.49019	0.17911
2711.56162	0.17752
2709.63306	0.17602
2707.70449	0.17451
2705.77593	0.17309
2703.84736	0.17184
2701.91880	0.17052
2699.99023	0.16903
2698.06167	0.16762
2696.13311	0.16643
2694.20454	0.16529
2692.27598	0.16405
2690.34741	0.16274
2688.41885	0.16154
2686.49028	0.16055
2684.56172	0.15969
2682.63315	0.15882
2680.70459	0.15778
2678.77603	0.15661
2676.84746	0.15549
2674.91890	0.15461
2672.99033	0.15387
2671.06177	0.15302
2669.13320	0.15213
2667.20464	0.15135
2665.27607	0.15059
2663.34751	0.14987
2661.41895	0.14926
2659.49038	0.14865
2657.56182	0.14789
2655.63325	0.14702
2653.70469	0.14627
2651.77612	0.14566
2649.84756	0.14509
2647.91899	0.14457
2645.99043	0.14408
2644.06187	0.14354
2642.13330	0.14296
2640.20474	0.14243
2638.27617	0.14202
2636.34761	0.14170
2634.41904	0.14139
2632.49048	0.14101
2630.56191	0.14066
2628.63335	0.14034
2626.70479	0.14001
2624.77622	0.13969
2622.84766	0.13941
2620.91909	0.13908
2618.99053	0.13875
2617.06196	0.13858
2615.13340	0.13861
2613.20483	0.13862
2611.27627	0.13843
2609.34771	0.13825
2607.41914	0.13821
2605.49058	0.13810
2603.56201	0.13790
2601.63345	0.13778
2599.70488	0.13772
2597.77632	0.13773
2595.84775	0.13781
2593.91919	0.13788
2591.99062	0.13792
2590.06206	0.13792
2588.13350	0.13796
2586.20493	0.13818
2584.27637	0.13849
2582.34780	0.13875
2580.41924	0.13896
2578.49067	0.13919
2576.56211	0.13941
2574.63354	0.13960
2572.70498	0.13985
2570.77642	0.14016
2568.84785	0.14044
2566.91929	0.14082
2564.99072	0.14132
2563.06216	0.14170
2561.13359	0.14186
2559.20503	0.14202
2557.27646	0.14234
2555.34790	0.14281
2553.41934	0.14329
2551.49077	0.14377
2549.56221	0.14424
2547.63364	0.14474
2545.70508	0.14527
2543.77651	0.14575
2541.84795	0.14617
2539.91938	0.14666
2537.99082	0.14713
2536.06226	0.14759
2534.13369	0.14826
2532.20513	0.14903
2530.27656	0.14970
2528.34800	0.15022
2526.41943	0.15067
2524.49087	0.15120
2522.56230	0.15181
2520.63374	0.15247
2518.70518	0.15315
2516.77661	0.15380
2514.84805	0.15446
2512.91948	0.15518
2510.99092	0.15589
2509.06235	0.15659
2507.13379	0.15735
2505.20522	0.15817
2503.27666	0.15894
2501.34810	0.15955
2499.41953	0.16005
2497.49097	0.16062
2495.56240	0.16144
2493.63384	0.16238
2491.70527	0.16319
2489.77671	0.16389
2487.84814	0.16462
2485.91958	0.16538
2483.99102	0.16608
2482.06245	0.16676
2480.13389	0.16749
2478.20532	0.16821
2476.27676	0.16891
2474.34819	0.16966
2472.41963	0.17036
2470.49106	0.17106
2468.56250	0.17190
2466.63394	0.17277
2464.70537	0.17356
2462.77681	0.17436
2460.84824	0.17523
2458.91968	0.17608
2456.99111	0.17682
2455.06255	0.17754
2453.13398	0.17840
2451.20542	0.17927
2449.27686	0.18003
2447.34829	0.18083
2445.41973	0.18169
2443.49116	0.18256
2441.56260	0.18345
2439.63403	0.18435
2437.70547	0.18525
2435.77690	0.18620
2433.84834	0.18703
2431.91978	0.18774
2429.99121	0.18862
2428.06265	0.18966
2426.13408	0.19064
2424.20552	0.19164
2422.27695	0.19274
2420.34839	0.19377
2418.41982	0.19466
2416.49126	0.19545
2414.56270	0.19632
2412.63413	0.19740
2410.70557	0.19853
2408.77700	0.19957
2406.84844	0.20051
2404.91987	0.20139
2402.99131	0.20222
2401.06274	0.20311
2399.13418	0.20422
2397.20562	0.20547
2395.27705	0.20665
2393.34849	0.20770
2391.41992	0.20877
2389.49136	0.21005
2387.56279	0.21170
2385.63423	0.21381
2383.70566	0.21662
2381.77710	0.22033
2379.84854	0.22481
2377.91997	0.22990
2375.99141	0.23562
2374.06284	0.24206
2372.13428	0.24921
2370.20571	0.25730
2368.27715	0.26629
2366.34858	0.27501
2364.42002	0.28240
2362.49146	0.28826
2360.56289	0.29157
2358.63433	0.29199
2356.70576	0.28991
2354.77720	0.28497
2352.84863	0.27828
2350.92007	0.27149
2348.99150	0.26730
2347.06294	0.26792
2345.13437	0.27385
2343.20581	0.28177
2341.27725	0.28617
2339.34868	0.28717
2337.42012	0.28742
2335.49155	0.28803
2333.56299	0.28866
2331.63442	0.28907
2329.70586	0.28905
2327.77729	0.28872
2325.84873	0.28824
2323.92017	0.28741
2321.99160	0.28630
2320.06304	0.28482
2318.13447	0.28289
2316.20591	0.28131
2314.27734	0.28074
2312.34878	0.28082
2310.42021	0.28085
2308.49165	0.28048
2306.56309	0.27987
2304.63452	0.27954
2302.70596	0.27985
2300.77739	0.28058
2298.84883	0.28133
2296.92026	0.28210
2294.99170	0.28286
2293.06313	0.28352
2291.13457	0.28433
2289.20601	0.28543
2287.27744	0.28652
2285.34888	0.28746
2283.42031	0.28852
2281.49175	0.28999
2279.56318	0.29189
2277.63462	0.29395
2275.70605	0.29596
2273.77749	0.29786
2271.84893	0.29959
2269.92036	0.30132
2267.99180	0.30311
2266.06323	0.30488
2264.13467	0.30658
2262.20610	0.30832
2260.27754	0.31005
2258.34897	0.31173
2256.42041	0.31344
2254.49185	0.31525
2252.56328	0.31711
2250.63472	0.31896
2248.70615	0.32086
2246.77759	0.32269
2244.84902	0.32437
2242.92046	0.32610
2240.99189	0.32799
2239.06333	0.32990
2237.13477	0.33178
2235.20620	0.33361
2233.27764	0.33553
2231.34907	0.33756
2229.42051	0.33957
2227.49194	0.34148
2225.56338	0.34332
2223.63481	0.34518
2221.70625	0.34713
2219.77769	0.34912
2217.84912	0.35102
2215.92056	0.35291
2213.99199	0.35487
2212.06343	0.35686
2210.13486	0.35877
2208.20630	0.36056
2206.27773	0.36229
2204.34917	0.36401
2202.42061	0.36567
2200.49204	0.36727
2198.56348	0.36892
2196.63491	0.37066
2194.70635	0.37252
2192.77778	0.37441
2190.84922	0.37616
2188.92065	0.37767
2186.99209	0.37902
2185.06353	0.38040
2183.13496	0.38185
2181.20640	0.38336
2179.27783	0.38489
2177.34927	0.38636
2175.42070	0.38766
2173.49214	0.38888
2171.56357	0.39021
2169.63501	0.39154
2167.70645	0.39264
2165.77788	0.39357
2163.84932	0.39451
2161.92075	0.39553
2159.99219	0.39645
2158.06362	0.39720
2156.13506	0.39794
2154.20649	0.39874
2152.27793	0.39942
2150.34937	0.39995
2148.42080	0.40045
2146.49224	0.40091
2144.56367	0.40131
2142.63511	0.40173
2140.70654	0.40217
2138.77798	0.40248
2136.84941	0.40263
2134.92085	0.40268
2132.99229	0.40259
2131.06372	0.40238
2129.13516	0.40211
2127.20659	0.40177
2125.27803	0.40146
2123.34946	0.40116
2121.42090	0.40078
2119.49233	0.40029
2117.56377	0.39969
2115.63521	0.39893
2113.70664	0.39811
2111.77808	0.39733
2109.84951	0.39652
2107.92095	0.39554
2105.99238	0.39444
2104.06382	0.39338
2102.13525	0.39235
2100.20669	0.39119
2098.27812	0.38988
2096.34956	0.38849
2094.42100	0.38699
2092.49243	0.38548
2090.56387	0.38410
2088.63530	0.38266
2086.70674	0.38099
2084.77817	0.37923
2082.84961	0.37755
2080.92104	0.37587
2078.99248	0.37406
2077.06392	0.37210
2075.13535	0.37008
2073.20679	0.36816
2071.27822	0.36626
2069.34966	0.36423
2067.42109	0.36219
2065.49253	0.36032
2063.56396	0.35835
2061.63540	0.35611
2059.70684	0.35379
2057.77827	0.35148
2055.84971	0.34925
2053.92114	0.34715
2051.99258	0.34500
2050.06401	0.34262
2048.13545	0.34023
2046.20688	0.33795
2044.27832	0.33568
2042.34976	0.33338
2040.42119	0.33097
2038.49263	0.32846
2036.56406	0.32595
2034.63550	0.32345
2032.70693	0.32090
2030.77837	0.31842
2028.84980	0.31609
2026.92124	0.31380
2024.99268	0.31136
2023.06411	0.30883
2021.13555	0.30640
2019.20698	0.30414
2017.27842	0.30198
2015.34985	0.29959
2013.42129	0.29699
2011.49272	0.29443
2009.56416	0.29197
2007.63560	0.28950
2005.70703	0.28707
2003.77847	0.28477
2001.84990	0.28252
1999.92134	0.28021
1997.99277	0.27794
1996.06421	0.27582
1994.13564	0.27400
1992.20708	0.27224
1990.27852	0.26997
1988.34995	0.26744
1986.42139	0.26512
1984.49282	0.26296
1982.56426	0.26084
1980.63569	0.25871
1978.70713	0.25663
1976.77856	0.25470
1974.85000	0.25287
1972.92144	0.25100
1970.99287	0.24918
1969.06431	0.24765
1967.13574	0.24620
1965.20718	0.24442
1963.27861	0.24247
1961.35005	0.24066
1959.42148	0.23892
1957.49292	0.23720
1955.56436	0.23561
1953.63579	0.23419
1951.70723	0.23273
1949.77866	0.23127
1947.85010	0.23004
1945.92153	0.22906
1943.99297	0.22821
1942.06440	0.22707
1940.13584	0.22529
1938.20728	0.22353
1936.27871	0.22223
1934.35015	0.22113
1932.42158	0.22010
1930.49302	0.21904
1928.56445	0.21794
1926.63589	0.21706
1924.70732	0.21669
1922.77876	0.21639
1920.85020	0.21558
1918.92163	0.21476
1916.99307	0.21396
1915.06450	0.21273
1913.13594	0.21163
1911.20737	0.21118
1909.27881	0.21092
1907.35024	0.21026
1905.42168	0.20931
1903.49312	0.20854
1901.56455	0.20798
1899.63599	0.20756
1897.70742	0.20738
1895.77886	0.20739
1893.85029	0.20723
1891.92173	0.20705
1889.99316	0.20720
1888.06460	0.20700
1886.13604	0.20628
1884.20747	0.20570
1882.27891	0.20535
1880.35034	0.20512
1878.42178	0.20505
1876.49321	0.20511
1874.56465	0.20518
1872.63608	0.20554
1870.70752	0.20666
1868.77896	0.20825
1866.85039	0.20850
1864.92183	0.20734
1862.99326	0.20649
1861.06470	0.20642
1859.13613	0.20675
1857.20757	0.20702
1855.27900	0.20729
1853.35044	0.20764
1851.42187	0.20817
1849.49331	0.20899
1847.56475	0.21023
1845.63618	0.21187
1843.70762	0.21320
1841.77905	0.21306
1839.85049	0.21253
1837.92192	0.21295
1835.99336	0.21376
1834.06479	0.21453
1832.13623	0.21582
1830.20767	0.21799
1828.27910	0.21960
1826.35054	0.22009
1824.42197	0.22070
1822.49341	0.22126
1820.56484	0.22190
1818.63628	0.22302
1816.70771	0.22448
1814.77915	0.22593
1812.85059	0.22770
1810.92202	0.22989
1808.99346	0.23170
1807.06489	0.23300
1805.13633	0.23446
1803.20776	0.23669
1801.27920	0.23951
1799.35063	0.24226
1797.42207	0.24436
1795.49351	0.24648
1793.56494	0.24945
1791.63638	0.25315
1789.70781	0.25546
1787.77925	0.25665
1785.85068	0.25899
1783.92212	0.26227
1781.99355	0.26588
1780.06499	0.26971
1778.13643	0.27338
1776.20786	0.27700
1774.27930	0.28162
1772.35073	0.28788
1770.42217	0.29333
1768.49360	0.29678
1766.56504	0.30017
1764.63647	0.30428
1762.70791	0.30960
1760.77935	0.31638
1758.85078	0.32245
1756.92222	0.32850
1754.99365	0.33499
1753.06509	0.34122
1751.13652	0.34959
1749.20796	0.36006
1747.27939	0.36912
1745.35083	0.37637
1743.42227	0.38422
1741.49370	0.39317
1739.56514	0.40389
1737.63657	0.41460
1735.70801	0.42440
1733.77944	0.43939
1731.85088	0.45590
1729.92231	0.46802
1727.99375	0.48047
1726.06519	0.49448
1724.13662	0.51048
1722.20806	0.52787
1720.27949	0.54444
1718.35093	0.56502
1716.42236	0.59412
1714.49380	0.61925
1712.56523	0.63887
1710.63667	0.65877
1708.70811	0.68122
1706.77954	0.70742
1704.85098	0.73835
1702.92241	0.76560
1700.99385	0.79340
1699.06528	0.83502
1697.13672	0.87232
1695.20815	0.90934
1693.27959	0.94547
1691.35103	0.97578
1689.42246	1.01202
1687.49390	1.05046
1685.56533	1.08793
1683.63677	1.14523
1681.70820	1.20307
1679.77964	1.23928
1677.85107	1.27432
1675.92251	1.31608
1673.99395	1.36824
1672.06538	1.41448
1670.13682	1.46047
1668.20825	1.51981
1666.27969	1.56732
1664.35112	1.60876
1662.42256	1.66357
1660.49399	1.72612
1658.56543	1.77423
1656.63687	1.81278
1654.70830	1.84721
1652.77974	1.89751
1650.85117	1.94506
1648.92261	1.96286
1646.99404	1.98583
1645.06548	2.00855
1643.13691	2.01971
1641.20835	2.02375
1639.27979	2.02841
1637.35122	2.03181
1635.42266	2.02896
1633.49409	2.01694
1631.56553	2.00154
1629.63696	1.98541
1627.70840	1.96043
1625.77983	1.93079
1623.85127	1.89330
1621.92271	1.84708
1619.99414	1.80596
1618.06558	1.76700
1616.13701	1.71124
1614.20845	1.65244
1612.27988	1.60706
1610.35132	1.56125
1608.42275	1.51236
1606.49419	1.46432
1604.56562	1.42035
1602.63706	1.37823
1600.70850	1.33691
1598.77993	1.29874
1596.85137	1.26343
1594.92280	1.22947
1592.99424	1.19656
1591.06567	1.16639
1589.13711	1.13852
1587.20854	1.11315
1585.27998	1.09007
1583.35142	1.06864
1581.42285	1.04950
1579.49429	1.03416
1577.56572	1.02172
1575.63716	1.00702
1573.70859	0.99303
1571.78003	0.98414
1569.85146	0.97665
1567.92290	0.96848
1565.99434	0.96232
1564.06577	0.95879
1562.13721	0.95731
1560.20864	0.95945
1558.28008	0.96756
1556.35151	0.97245
1554.42295	0.97341
1552.49438	0.97510
1550.56582	0.97628
1548.63726	0.97541
1546.70869	0.97217
1544.78013	0.96691
1542.85156	0.95937
1540.92300	0.94526
1538.99443	0.91750
1537.06587	0.89486
1535.13730	0.88026
1533.20874	0.86206
1531.28018	0.84223
1529.35161	0.82783
1527.42305	0.81514
1525.49448	0.80240
1523.56592	0.79216
1521.63735	0.78288
1519.70879	0.77184
1517.78022	0.76133
1515.85166	0.74936
1513.92310	0.73683
1511.99453	0.72654
1510.06597	0.71855
1508.13740	0.71185
1506.20884	0.69827
1504.28027	0.68306
1502.35171	0.67471
1500.42314	0.66869
1498.49458	0.66288
1496.56602	0.65573
1494.63745	0.64765
1492.70889	0.64157
1490.78032	0.63756
1488.85176	0.63287
1486.92319	0.62645
1484.99463	0.62059
1483.06606	0.61653
1481.13750	0.61379
1479.20894	0.61187
1477.28037	0.61118
1475.35181	0.61193
1473.42324	0.61332
1471.49468	0.61268
1469.56611	0.60946
1467.63755	0.60665
1465.70898	0.60539
1463.78042	0.60466
1461.85186	0.60379
1459.92329	0.60417
1457.99473	0.60637
1456.06616	0.60689
1454.13760	0.60351
1452.20903	0.60018
1450.28047	0.59775
1448.35190	0.59575
1446.42334	0.59327
1444.49478	0.59040
1442.56621	0.58779
1440.63765	0.58547
1438.70908	0.58346
1436.78052	0.58112
1434.85195	0.57770
1432.92339	0.57460
1430.99482	0.57274
1429.06626	0.57169
1427.13770	0.57103
1425.20913	0.57122
1423.28057	0.57226
1421.35200	0.57336
1419.42344	0.57444
1417.49487	0.57461
1415.56631	0.57337
1413.63774	0.57248
1411.70918	0.57263
1409.78062	0.57354
1407.85205	0.57504
1405.92349	0.57727
1403.99492	0.57923
1402.06636	0.57989
1400.13779	0.58003
1398.20923	0.57966
1396.28066	0.57780
1394.35210	0.57399
1392.42354	0.56891
1390.49497	0.56435
1388.56641	0.56044
1386.63784	0.55591
1384.70928	0.55063
1382.78071	0.54571
1380.85215	0.54141
1378.92358	0.53773
1376.99502	0.53498
1375.06646	0.53325
1373.13789	0.53176
1371.20933	0.53027
1369.28076	0.52917
1367.35220	0.52798
1365.42363	0.52670
1363.49507	0.52587
1361.56650	0.52485
1359.63794	0.52303
1357.70937	0.52131
1355.78081	0.52014
1353.85225	0.51928
1351.92368	0.51865
1349.99512	0.51814
1348.06655	0.51746
1346.13799	0.51665
1344.20942	0.51603
1342.28086	0.51588
1340.35229	0.51616
1338.42373	0.51597
1336.49517	0.51496
1334.56660	0.51405
1332.63804	0.51372
1330.70947	0.51386
1328.78091	0.51431
1326.85234	0.51505
1324.92378	0.51594
1322.99521	0.51681
1321.06665	0.51765
1319.13809	0.51837
1317.20952	0.51869
1315.28096	0.51860
1313.35239	0.51831
1311.42383	0.51786
1309.49526	0.51735
1307.56670	0.51690
1305.63813	0.51656
1303.70957	0.51623
1301.78101	0.51570
1299.85244	0.51486
1297.92388	0.51391
1295.99531	0.51296
1294.06675	0.51204
1292.13818	0.51107
1290.20962	0.50994
1288.28105	0.50869
1286.35249	0.50742
1284.42393	0.50620
1282.49536	0.50505
1280.56680	0.50390
1278.63823	0.50261
1276.70967	0.50131
1274.78110	0.50024
1272.85254	0.49935
1270.92397	0.49858
1268.99541	0.49787
1267.06685	0.49720
1265.13828	0.49654
1263.20972	0.49591
1261.28115	0.49518
1259.35259	0.49430
1257.42402	0.49360
1255.49546	0.49330
1253.56689	0.49325
1251.63833	0.49333
1249.70977	0.49354
1247.78120	0.49372
1245.85264	0.49363
1243.92407	0.49326
1241.99551	0.49259
1240.06694	0.49136
1238.13838	0.48952
1236.20981	0.48743
1234.28125	0.48537
1232.35269	0.48328
1230.42412	0.48127
1228.49556	0.47945
1226.56699	0.47779
1224.63843	0.47622
1222.70986	0.47468
1220.78130	0.47325
1218.85273	0.47204
1216.92417	0.47091
1214.99561	0.46977
1213.06704	0.46880
1211.13848	0.46813
1209.20991	0.46757
1207.28135	0.46682
1205.35278	0.46590
1203.42422	0.46508
1201.49565	0.46435
1199.56709	0.46354
1197.63853	0.46280
1195.70996	0.46232
1193.78140	0.46196
1191.85283	0.46154
1189.92427	0.46114
1187.99570	0.46081
1186.06714	0.46056
1184.13857	0.46058
1182.21001	0.46104
1180.28145	0.46194
1178.35288	0.46315
1176.42432	0.46449
1174.49575	0.46561
1172.56719	0.46616
1170.63862	0.46619
1168.71006	0.46594
1166.78149	0.46541
1164.85293	0.46478
1162.92437	0.46425
1160.99580	0.46364
1159.06724	0.46275
1157.13867	0.46180
1155.21011	0.46087
1153.28154	0.45977
1151.35298	0.45834
1149.42441	0.45655
1147.49585	0.45443
1145.56729	0.45213
1143.63872	0.44991
1141.71016	0.44785
1139.78159	0.44605
1137.85303	0.44467
1135.92446	0.44369
1133.99590	0.44301
1132.06733	0.44234
1130.13877	0.44141
1128.21021	0.44036
1126.28164	0.43935
1124.35308	0.43850
1122.42451	0.43787
1120.49595	0.43740
1118.56738	0.43711
1116.63882	0.43693
1114.71025	0.43684
1112.78169	0.43699
1110.85312	0.43743
1108.92456	0.43797
1106.99600	0.43872
1105.06743	0.43987
1103.13887	0.44123
1101.21030	0.44278
1099.28174	0.44474
1097.35317	0.44709
1095.42461	0.44964
1093.49604	0.45235
1091.56748	0.45561
1089.63892	0.45962
1087.71035	0.46406
1085.78179	0.46882
1083.85322	0.47394
1081.92466	0.47909
1079.99609	0.48360
1078.06753	0.48658
1076.13896	0.48736
1074.21040	0.48586
1072.28184	0.48226
1070.35327	0.47712
1068.42471	0.47127
1066.49614	0.46530
1064.56758	0.45962
1062.63901	0.45464
1060.71045	0.45036
1058.78188	0.44648
1056.85332	0.44292
1054.92476	0.43970
1052.99619	0.43689
1051.06763	0.43444
1049.13906	0.43205
1047.21050	0.42966
1045.28193	0.42761
1043.35337	0.42601
1041.42480	0.42468
1039.49624	0.42358
1037.56768	0.42278
1035.63911	0.42217
1033.71055	0.42168
1031.78198	0.42141
1029.85342	0.42131
1027.92485	0.42128
1025.99629	0.42131
1024.06772	0.42143
1022.13916	0.42171
1020.21060	0.42221
1018.28203	0.42292
1016.35347	0.42375
1014.42490	0.42457
1012.49634	0.42538
1010.56777	0.42630
1008.63921	0.42736
1006.71064	0.42869
1004.78208	0.43044
1002.85352	0.43250
1000.92495	0.43481
998.99639	0.43746
997.06782	0.44068
995.13926	0.44442
993.21069	0.44803
991.28213	0.45089
989.35356	0.45302
987.42500	0.45445
985.49644	0.45528
983.56787	0.45590
981.63931	0.45668
979.71074	0.45777
977.78218	0.45923
975.85361	0.46120
973.92505	0.46362
971.99648	0.46621
970.06792	0.46890
968.13936	0.47200
966.21079	0.47570
964.28223	0.47978
962.35366	0.48400
960.42510	0.48826
958.49653	0.49271
956.56797	0.49762
954.63940	0.50301
952.71084	0.50856
950.78228	0.51419
948.85371	0.51993
946.92515	0.52542
944.99658	0.53064
943.06802	0.53610
941.13945	0.54152
939.21089	0.54634
937.28232	0.55117
935.35376	0.55668
933.42520	0.56230
931.49663	0.56742
929.56807	0.57226
927.63950	0.57717
925.71094	0.58240
923.78237	0.58780
921.85381	0.59289
919.92524	0.59796
917.99668	0.60413
916.06812	0.61137
914.13955	0.61836
912.21099	0.62485
910.28242	0.63158
908.35386	0.63850
906.42529	0.64601
904.49673	0.65434
902.56816	0.66241
900.63960	0.67007
898.71104	0.67823
896.78247	0.68697
894.85391	0.69583
892.92534	0.70489
890.99678	0.71465
889.06821	0.72480
887.13965	0.73440
885.21108	0.74283
883.28252	0.75088
881.35396	0.76019
879.42539	0.77106
877.49683	0.78226
875.56826	0.79294
873.63970	0.80369
871.71113	0.81476
869.78257	0.82481
867.85400	0.83363
865.92544	0.84186
863.99687	0.85025
862.06831	0.86080
860.13975	0.87273
858.21118	0.88313
856.28262	0.89209
854.35405	0.90104
852.42549	0.91076
850.49692	0.92116
848.56836	0.93131
846.63979	0.94121
844.71123	0.95103
842.78267	0.96088
840.85410	0.97185
838.92554	0.98252
836.99697	0.99134
835.06841	1.00117
833.13984	1.01289
831.21128	1.02337
829.28271	1.03290
827.35415	1.04334
825.42559	1.05314
823.49702	1.06181
821.56846	1.07023
819.63989	1.07852
817.71133	1.08654
815.78276	1.09308
813.85420	1.09743
811.92563	1.10655
809.99707	1.12674
808.06851	1.14336
806.13994	1.14509
804.21138	1.14640
802.28281	1.15205
800.35425	1.15525
798.42568	1.16271
796.49712	1.17803
794.56855	1.19229
792.63999	1.19806
790.71143	1.19448
788.78286	1.19463
786.85430	1.20841
784.92573	1.23116
782.99717	1.23763
781.06860	1.21423
779.14004	1.19034
777.21147	1.18625
775.28291	1.20950
773.35435	1.24423
771.42578	1.26395
769.49722	1.30902
767.56865	1.38735
765.64009	1.33873
763.71152	1.23257
761.78296	1.21569
759.85439	1.20657
757.92583	1.16737
755.99727	1.17644
754.06870	1.17490
752.14014	1.13648
750.21157	1.13173
748.28301	1.12472
746.35444	1.06308
744.42588	1.01203
742.49731	1.04766
740.56875	1.15183
738.64019	1.14753
736.71162	1.02269
734.78306	0.95744
732.85449	0.95720
730.92593	0.83213
728.99736	0.60944
727.06880	0.45210
725.14023	0.40875
723.21167	0.44660
721.28311	0.44747
719.35454	0.41798
717.42598	0.41898
715.49741	0.43964
713.56885	0.30133
711.64028	0.11828
709.71172	0.03770
707.78315	0.11625
705.85459	0.18677
703.92603	0.25558
701.99746	0.62933
700.06890	4.20041
698.14033	0.55926
696.21177	0.25575
694.28320	0.13396
692.35464	0.06013
690.42607	0.07546
688.49751	0.10111
686.56895	0.08020
684.64038	0.11296
682.71182	0.18319
680.78325	0.19356
678.85469	0.16438
676.92612	0.17431
674.99756	0.17811
673.06899	0.11454
671.14043	0.07971
669.21187	0.12201
667.28330	0.19953
665.35474	0.29937
663.42617	0.37746
661.49761	0.34937
659.56904	0.30870
657.64048	0.27548
655.71191	0.30895
653.78335	0.37566
651.85479	0.32587
649.92622	0.31120
647.99766	0.38817
646.06909	0.42388
644.14053	0.47018
642.21196	0.61217
640.28340	0.54982
638.35483	0.35177
636.42627	0.32777
634.49771	0.28892
632.56914	0.09435
630.64058	-0.06677
628.71201	-0.03510
626.78345	0.15179
624.85488	0.29073
622.92632	0.33479
620.99775	0.29740
619.06919	0.21188
617.14062	0.23490
615.21206	0.31152
613.28350	0.25181
611.35493	0.13792
609.42637	0.07419
607.49780	0.06266
605.56924	0.05480
603.64067	0.07209
601.71211	0.14023
599.78354	0.22671
597.85498	0.34601
595.92642	0.44372
593.99785	0.40735
592.06929	0.44083
590.14072	0.58306
588.21216	0.48793
586.28359	0.23942
584.35503	0.02337
582.42646	-0.04455
580.49790	0.01855
578.56934	0.06859
576.64077	0.08289
574.71221	0.09782
572.78364	0.08850
570.85508	0.10153
568.92651	0.18469
566.99795	0.27741
565.06938	0.29474
563.14082	0.22205
561.21226	0.17850
559.28369	0.22428
557.35513	0.32233
555.42656	0.37638
553.49800	0.31380
551.56943	0.19129
549.64087	0.08343
547.71230	0.03971
545.78374	0.07057
543.85518	0.14426
541.92661	0.17828
539.99805	0.15513
538.06948	0.15556
536.14092	0.15167
534.21235	0.14037
532.28379	0.15847
530.35522	0.20385
528.42666	0.22619
526.49810	0.16284
524.56953	0.09211
522.64097	0.10033
520.71240	0.18605
518.78384	0.32486
516.85527	0.40341
514.92671	0.32073
512.99814	0.19067
511.06958	0.17655
509.14102	0.31818
507.21245	0.58934
505.28389	0.48226
503.35532	0.27071
501.42676	0.13259
499.49819	0.03302
