3997.91411	0.12855
3995.98555	0.12884
3994.05698	0.12946
3992.12842	0.12969
3990.19985	0.12944
3988.27129	0.12917
3986.34272	0.12926
3984.41416	0.13009
3982.48560	0.13104
3980.55703	0.13114
3978.62847	0.13074
3976.69990	0.13085
3974.77134	0.13148
3972.84277	0.13203
3970.91421	0.13229
3968.98564	0.13244
3967.05708	0.13246
3965.12852	0.13248
3963.19995	0.13283
3961.27139	0.13315
3959.34282	0.13301
3957.41426	0.13259
3955.48569	0.13231
3953.55713	0.13260
3951.62856	0.13353
3949.70000	0.13435
3947.77144	0.13446
3945.84287	0.13414
3943.91431	0.13393
3941.98574	0.13387
3940.05718	0.13350
3938.12861	0.13292
3936.20005	0.13258
3934.27148	0.13309
3932.34292	0.13453
3930.41436	0.13553
3928.48579	0.13510
3926.55723	0.13436
3924.62866	0.13442
3922.70010	0.13444
3920.77153	0.13390
3918.84297	0.13399
3916.91440	0.13475
3914.98584	0.13432
3913.05728	0.13234
3911.12871	0.13057
3909.20015	0.13030
3907.27158	0.13167
3905.34302	0.13420
3903.41445	0.13694
3901.48589	0.13838
3899.55732	0.13782
3897.62876	0.13554
3895.70020	0.13300
3893.77163	0.13235
3891.84307	0.13372
3889.91450	0.13442
3887.98594	0.13380
3886.05737	0.13450
3884.12881	0.13588
3882.20024	0.13606
3880.27168	0.13583
3878.34312	0.13464
3876.41455	0.13336
3874.48599	0.13402
3872.55742	0.13585
3870.62886	0.13785
3868.70029	0.13914
3866.77173	0.13842
3864.84316	0.13796
3862.91460	0.13827
3860.98604	0.13714
3859.05747	0.13586
3857.12891	0.13638
3855.20034	0.13876
3853.27178	0.14306
3851.34321	0.14474
3849.41465	0.14107
3847.48608	0.13808
3845.55752	0.13753
3843.62896	0.13910
3841.70039	0.14215
3839.77183	0.14566
3837.84326	0.14826
3835.91470	0.14800
3833.98613	0.14606
3832.05757	0.14461
3830.12900	0.14395
3828.20044	0.14407
3826.27187	0.14511
3824.34331	0.14670
3822.41475	0.14913
3820.48618	0.15267
3818.55762	0.15377
3816.62905	0.15256
3814.70049	0.15128
3812.77192	0.14942
3810.84336	0.14832
3808.91479	0.14945
3806.98623	0.15262
3805.05767	0.15551
3803.12910	0.15732
3801.20054	0.15998
3799.27197	0.16178
3797.34341	0.16137
3795.41484	0.16027
3793.48628	0.15870
3791.55771	0.15805
3789.62915	0.15895
3787.70059	0.16053
3785.77202	0.16241
3783.84346	0.16411
3781.91489	0.16532
3779.98633	0.16698
3778.05776	0.16894
3776.12920	0.16968
3774.20063	0.17008
3772.27207	0.17189
3770.34351	0.17554
3768.41494	0.17933
3766.48638	0.18121
3764.55781	0.18212
3762.62925	0.18327
3760.70068	0.18577
3758.77212	0.18982
3756.84355	0.19311
3754.91499	0.19517
3752.98643	0.19866
3751.05786	0.20499
3749.12930	0.21063
3747.20073	0.21192
3745.27217	0.21289
3743.34360	0.21544
3741.41504	0.21757
3739.48647	0.21972
3737.55791	0.22409
3735.62935	0.23183
3733.70078	0.23973
3731.77222	0.24237
3729.84365	0.24270
3727.91509	0.24496
3725.98652	0.25006
3724.05796	0.25674
3722.12939	0.26335
3720.20083	0.26934
3718.27227	0.27451
3716.34370	0.28002
3714.41514	0.28734
3712.48657	0.29847
3710.55801	0.31429
3708.62944	0.32791
3706.70088	0.33633
3704.77231	0.34498
3702.84375	0.35727
3700.91519	0.37407
3698.98662	0.39150
3697.05806	0.40755
3695.12949	0.42522
3693.20093	0.44490
3691.27236	0.46749
3689.34380	0.49675
3687.41523	0.52983
3685.48667	0.55705
3683.55811	0.58088
3681.62954	0.60746
3679.70098	0.63883
3677.77241	0.67355
3675.84385	0.71523
3673.91528	0.76779
3671.98672	0.80812
3670.05815	0.84467
3668.12959	0.89492
3666.20103	0.93931
3664.27246	0.97667
3662.34390	1.01828
3660.41533	1.06422
3658.48677	1.10995
3656.55820	1.15871
3654.62964	1.21268
3652.70107	1.25843
3650.77251	1.29992
3648.84395	1.35730
3646.91538	1.42343
3644.98682	1.46915
3643.05825	1.50469
3641.12969	1.54257
3639.20112	1.58530
3637.27256	1.62872
3635.34399	1.67112
3633.41543	1.71419
3631.48687	1.75605
3629.55830	1.79955
3627.62974	1.85356
3625.70117	1.90052
3623.77261	1.93205
3621.84404	1.96380
3619.91548	2.00217
3617.98691	2.04936
3616.05835	2.09350
3614.12979	2.12950
3612.20122	2.16689
3610.27266	2.20427
3608.34409	2.24255
3606.41553	2.28376
3604.48696	2.32182
3602.55840	2.35646
3600.62983	2.39476
3598.70127	2.43641
3596.77271	2.47673
3594.84414	2.51601
3592.91558	2.55496
3590.98701	2.59242
3589.05845	2.62946
3587.12988	2.67392
3585.20132	2.72050
3583.27275	2.75872
3581.34419	2.79530
3579.41562	2.83614
3577.48706	2.87998
3575.55850	2.92342
3573.62993	2.96606
3571.70137	3.00759
3569.77280	3.04858
3567.84424	3.09202
3565.91567	3.14254
3563.98711	3.19083
3562.05854	3.23207
3560.12998	3.27408
3558.20142	3.31832
3556.27285	3.36203
3554.34429	3.40307
3552.41572	3.44550
3550.48716	3.49154
3548.55859	3.53827
3546.63003	3.58527
3544.70146	3.63452
3542.77290	3.68321
3540.84434	3.72988
3538.91577	3.77605
3536.98721	3.82087
3535.05864	3.86672
3533.13008	3.91383
3531.20151	3.96160
3529.27295	4.00980
3527.34438	4.05756
3525.41582	4.10415
3523.48726	4.15054
3521.55869	4.19890
3519.63013	4.24795
3517.70156	4.29758
3515.77300	4.34699
3513.84443	4.39385
3511.91587	4.44027
3509.98730	4.49033
3508.05874	4.53970
3506.13018	4.58583
3504.20161	4.63365
3502.27305	4.68144
3500.34448	4.72582
3498.41592	4.76754
3496.48735	4.80601
3494.55879	4.84553
3492.63022	4.89687
3490.70166	4.95560
3488.77310	5.00853
3486.84453	5.05929
3484.91597	5.11236
3482.98740	5.15938
3481.05884	5.19899
3479.13027	5.23589
3477.20171	5.27631
3475.27314	5.32585
3473.34458	5.37745
3471.41602	5.42218
3469.48745	5.46397
3467.55889	5.51404
3465.63032	5.57444
3463.70176	5.63415
3461.77319	5.68675
3459.84463	5.73220
3457.91606	5.76789
3455.98750	5.81141
3454.05894	5.87838
3452.13037	5.93984
3450.20181	5.97091
3448.27324	5.99856
3446.34468	6.05360
3444.41611	6.11943
3442.48755	6.16917
3440.55898	6.20955
3438.63042	6.26476
3436.70186	6.32540
3434.77329	6.36606
3432.84473	6.40403
3430.91616	6.46270
3428.98760	6.52479
3427.05903	6.57000
3425.13047	6.62240
3423.20190	6.68208
3421.27334	6.72437
3419.34478	6.74613
3417.41621	6.77528
3415.48765	6.83975
3413.55908	6.90839
3411.63052	6.94708
3409.70195	6.96368
3407.77339	6.98784
3405.84482	7.02448
3403.91626	7.06643
3401.98770	7.10906
3400.05913	7.15496
3398.13057	7.21137
3396.20200	7.24309
3394.27344	7.24798
3392.34487	7.30435
3390.41631	7.42430
3388.48774	7.48253
3386.55918	7.45273
3384.63062	7.42535
3382.70205	7.45071
3380.77349	7.52302
3378.84492	7.57841
3376.91636	7.61213
3374.98779	7.66346
3373.05923	7.69304
3371.13066	7.69469
3369.20210	7.74988
3367.27354	7.81874
3365.34497	7.84408
3363.41641	7.86501
3361.48784	7.87757
3359.55928	7.85973
3357.63071	7.84830
3355.70215	7.87925
3353.77358	7.89112
3351.84502	7.89118
3349.91646	7.93801
3347.98789	8.03763
3346.05933	8.13802
3344.13076	8.15485
3342.20220	8.09399
3340.27363	8.00069
3338.34507	7.97043
3336.41650	8.09020
3334.48794	8.23507
3332.55937	8.20663
3330.63081	8.20067
3328.70225	8.34231
3326.77368	8.40608
3324.84512	8.32532
3322.91655	8.25068
3320.98799	8.18526
3319.05942	8.10956
3317.13086	8.11320
3315.20229	8.15516
3313.27373	8.18950
3311.34517	8.29187
3309.41660	8.46601
3307.48804	8.55107
3305.55947	8.41535
3303.63091	8.25983
3301.70234	8.23236
3299.77378	8.27896
3297.84521	8.30841
3295.91665	8.29899
3293.98809	8.25392
3292.05952	8.22912
3290.13096	8.26379
3288.20239	8.30604
3286.27383	8.33939
3284.34526	8.32570
3282.41670	8.30147
3280.48813	8.39029
3278.55957	8.50702
3276.63101	8.47055
3274.70244	8.39268
3272.77388	8.36448
3270.84531	8.34959
3268.91675	8.35768
3266.98818	8.34260
3265.05962	8.32084
3263.13105	8.32916
3261.20249	8.31680
3259.27393	8.28570
3257.34536	8.29751
3255.41680	8.35231
3253.48823	8.43217
3251.55967	8.51412
3249.63110	8.51520
3247.70254	8.41599
3245.77397	8.32501
3243.84541	8.33872
3241.91685	8.38746
3239.98828	8.36227
3238.05972	8.28892
3236.13115	8.24427
3234.20259	8.23180
3232.27402	8.19623
3230.34546	8.19762
3228.41689	8.29690
3226.48833	8.34254
3224.55977	8.23321
3222.63120	8.13535
3220.70264	8.12330
3218.77407	8.11500
3216.84551	8.04389
3214.91694	7.93624
3212.98838	7.89479
3211.05981	7.95574
3209.13125	7.98542
3207.20269	7.90723
3205.27412	7.84789
3203.34556	7.82568
3201.41699	7.77334
3199.48843	7.73376
3197.55986	7.73558
3195.63130	7.73142
3193.70273	7.68512
3191.77417	7.62587
3189.84561	7.58404
3187.91704	7.52797
3185.98848	7.47552
3184.05991	7.45561
3182.13135	7.41866
3180.20278	7.36575
3178.27422	7.32784
3176.34565	7.28270
3174.41709	7.22378
3172.48853	7.14906
3170.55996	7.04406
3168.63140	6.94734
3166.70283	6.88143
3164.77427	6.83309
3162.84570	6.80860
3160.91714	6.78545
3158.98857	6.73049
3157.06001	6.64870
3155.13145	6.55864
3153.20288	6.47387
3151.27432	6.40201
3149.34575	6.33490
3147.41719	6.26123
3145.48862	6.18960
3143.56006	6.12472
3141.63149	6.05773
3139.70293	5.98189
3137.77437	5.90598
3135.84580	5.84175
3133.91724	5.78210
3131.98867	5.71352
3130.06011	5.63865
3128.13154	5.56836
3126.20298	5.50120
3124.27441	5.42991
3122.34585	5.36022
3120.41729	5.30143
3118.48872	5.24266
3116.56016	5.17106
3114.63159	5.09237
3112.70303	5.01784
3110.77446	4.95087
3108.84590	4.88668
3106.91733	4.82156
3104.98877	4.75761
3103.06021	4.69701
3101.13164	4.63509
3099.20308	4.56922
3097.27451	4.50232
3095.34595	4.43594
3093.41738	4.37041
3091.48882	4.30526
3089.56025	4.24096
3087.63169	4.17932
3085.70312	4.12082
3083.77456	4.06350
3081.84600	4.00590
3079.91743	3.94746
3077.98887	3.88793
3076.06030	3.82972
3074.13174	3.77477
3072.20317	3.72072
3070.27461	3.66506
3068.34604	3.60841
3066.41748	3.55186
3064.48892	3.49637
3062.56035	3.44247
3060.63179	3.39040
3058.70322	3.33838
3056.77466	3.28376
3054.84609	3.22902
3052.91753	3.17769
3050.98896	3.12851
3049.06040	3.07892
3047.13184	3.02850
3045.20327	2.97807
3043.27471	2.92916
3041.34614	2.88269
3039.41758	2.83738
3037.48901	2.79150
3035.56045	2.74527
3033.63188	2.70012
3031.70332	2.65596
3029.77476	2.61232
3027.84619	2.56902
3025.91763	2.52553
3023.98906	2.48264
3022.06050	2.44102
3020.13193	2.39982
3018.20337	2.35920
3016.27480	2.31980
3014.34624	2.28101
3012.41768	2.24213
3010.48911	2.20356
3008.56055	2.16624
3006.63198	2.13057
3004.70342	2.09574
3002.77485	2.06080
3000.84629	2.02620
2998.91772	1.99252
2996.98916	1.95974
2995.06060	1.92809
2993.13203	1.89757
2991.20347	1.86774
2989.27490	1.83829
2987.34634	1.80930
2985.41777	1.78116
2983.48921	1.75380
2981.56064	1.72697
2979.63208	1.70075
2977.70352	1.67514
2975.77495	1.65013
2973.84639	1.62569
2971.91782	1.60151
2969.98926	1.57721
2968.06069	1.55305
2966.13213	1.52971
2964.20356	1.50704
2962.27500	1.48427
2960.34644	1.46113
2958.41787	1.43775
2956.48931	1.41425
2954.56074	1.39095
2952.63218	1.36790
2950.70361	1.34479
2948.77505	1.32175
2946.84648	1.29935
2944.91792	1.27791
2942.98936	1.25747
2941.06079	1.23819
2939.13223	1.21959
2937.20366	1.20054
2935.27510	1.18081
2933.34653	1.16097
2931.41797	1.14134
2929.48940	1.12201
2927.56084	1.10280
2925.63228	1.08390
2923.70371	1.06601
2921.77515	1.04846
2919.84658	1.03056
2917.91802	1.01319
2915.98945	0.99622
2914.06089	0.97862
2912.13232	0.96091
2910.20376	0.94400
2908.27520	0.92776
2906.34663	0.91190
2904.41807	0.89652
2902.48950	0.88192
2900.56094	0.86802
2898.63237	0.85425
2896.70381	0.84018
2894.77524	0.82610
2892.84668	0.81282
2890.91812	0.80072
2888.98955	0.78945
2887.06099	0.77846
2885.13242	0.76757
2883.20386	0.75690
2881.27529	0.74646
2879.34673	0.73643
2877.41816	0.72679
2875.48960	0.71715
2873.56104	0.70721
2871.63247	0.69661
2869.70391	0.68529
2867.77534	0.67355
2865.84678	0.66161
2863.91821	0.64969
2861.98965	0.63814
2860.06108	0.62705
2858.13252	0.61646
2856.20396	0.60664
2854.27539	0.59744
2852.34683	0.58833
2850.41826	0.57940
2848.48970	0.57049
2846.56113	0.56120
2844.63257	0.55205
2842.70400	0.54383
2840.77544	0.53653
2838.84687	0.52975
2836.91831	0.52316
2834.98975	0.51652
2833.06118	0.50989
2831.13262	0.50328
2829.20405	0.49665
2827.27549	0.49029
2825.34692	0.48420
2823.41836	0.47799
2821.48979	0.47160
2819.56123	0.46534
2817.63267	0.45928
2815.70410	0.45337
2813.77554	0.44761
2811.84697	0.44189
2809.91841	0.43610
2807.98984	0.43035
2806.06128	0.42479
2804.13271	0.41938
2802.20415	0.41412
2800.27559	0.40903
2798.34702	0.40399
2796.41846	0.39881
2794.48989	0.39370
2792.56133	0.38899
2790.63276	0.38457
2788.70420	0.38007
2786.77563	0.37537
2784.84707	0.37075
2782.91851	0.36634
2780.98994	0.36201
2779.06138	0.35770
2777.13281	0.35353
2775.20425	0.34951
2773.27568	0.34552
2771.34712	0.34152
2769.41855	0.33754
2767.48999	0.33381
2765.56143	0.33038
2763.63286	0.32695
2761.70430	0.32340
2759.77573	0.31984
2757.84717	0.31636
2755.91860	0.31298
2753.99004	0.30971
2752.06147	0.30655
2750.13291	0.30343
2748.20435	0.30033
2746.27578	0.29731
2744.34722	0.29443
2742.41865	0.29156
2740.49009	0.28864
2738.56152	0.28578
2736.63296	0.28305
2734.70439	0.28043
2732.77583	0.27783
2730.84727	0.27539
2728.91870	0.27321
2726.99014	0.27100
2725.06157	0.26855
2723.13301	0.26607
2721.20444	0.26372
2719.27588	0.26145
2717.34731	0.25922
2715.41875	0.25707
2713.49019	0.25498
2711.56162	0.25300
2709.63306	0.25125
2707.70449	0.24965
2705.77593	0.24800
2703.84736	0.24626
2701.91880	0.24452
2699.99023	0.24281
2698.06167	0.24117
2696.13311	0.23968
2694.20454	0.23824
2692.27598	0.23679
2690.34741	0.23527
2688.41885	0.23374
2686.49028	0.23234
2684.56172	0.23107
2682.63315	0.22989
2680.70459	0.22874
2678.77603	0.22753
2676.84746	0.22631
2674.91890	0.22518
2672.99033	0.22407
2671.06177	0.22283
2669.13320	0.22154
2667.20464	0.22032
2665.27607	0.21910
2663.34751	0.21805
2661.41895	0.21714
2659.49038	0.21629
2657.56182	0.21553
2655.63325	0.21469
2653.70469	0.21371
2651.77612	0.21279
2649.84756	0.21212
2647.91899	0.21155
2645.99043	0.21086
2644.06187	0.21012
2642.13330	0.20939
2640.20474	0.20874
2638.27617	0.20815
2636.34761	0.20746
2634.41904	0.20676
2632.49048	0.20623
2630.56191	0.20578
2628.63335	0.20530
2626.70479	0.20484
2624.77622	0.20437
2622.84766	0.20391
2620.91909	0.20360
2618.99053	0.20336
2617.06196	0.20308
2615.13340	0.20283
2613.20483	0.20252
2611.27627	0.20200
2609.34771	0.20152
2607.41914	0.20132
2605.49058	0.20133
2603.56201	0.20119
2601.63345	0.20087
2599.70488	0.20070
2597.77632	0.20068
2595.84775	0.20056
2593.91919	0.20038
2591.99062	0.20044
2590.06206	0.20083
2588.13350	0.20112
2586.20493	0.20115
2584.27637	0.20114
2582.34780	0.20120
2580.41924	0.20134
2578.49067	0.20148
2576.56211	0.20160
2574.63354	0.20177
2572.70498	0.20203
2570.77642	0.20235
2568.84785	0.20268
2566.91929	0.20304
2564.99072	0.20339
2563.06216	0.20359
2561.13359	0.20369
2559.20503	0.20396
2557.27646	0.20442
2555.34790	0.20486
2553.41934	0.20524
2551.49077	0.20561
2549.56221	0.20604
2547.63364	0.20656
2545.70508	0.20704
2543.77651	0.20746
2541.84795	0.20791
2539.91938	0.20839
2537.99082	0.20898
2536.06226	0.20970
2534.13369	0.21041
2532.20513	0.21095
2530.27656	0.21130
2528.34800	0.21167
2526.41943	0.21225
2524.49087	0.21294
2522.56230	0.21361
2520.63374	0.21423
2518.70518	0.21495
2516.77661	0.21588
2514.84805	0.21675
2512.91948	0.21742
2510.99092	0.21803
2509.06235	0.21869
2507.13379	0.21937
2505.20522	0.22008
2503.27666	0.22075
2501.34810	0.22136
2499.41953	0.22207
2497.49097	0.22287
2495.56240	0.22360
2493.63384	0.22431
2491.70527	0.22507
2489.77671	0.22587
2487.84814	0.22674
2485.91958	0.22764
2483.99102	0.22845
2482.06245	0.22914
2480.13389	0.22981
2478.20532	0.23054
2476.27676	0.23130
2474.34819	0.23210
2472.41963	0.23299
2470.49106	0.23389
2468.56250	0.23468
2466.63394	0.23532
2464.70537	0.23604
2462.77681	0.23694
2460.84824	0.23784
2458.91968	0.23866
2456.99111	0.23949
2455.06255	0.24045
2453.13398	0.24155
2451.20542	0.24251
2449.27686	0.24323
2447.34829	0.24396
2445.41973	0.24480
2443.49116	0.24567
2441.56260	0.24656
2439.63403	0.24756
2437.70547	0.24855
2435.77690	0.24937
2433.84834	0.25021
2431.91978	0.25121
2429.99121	0.25227
2428.06265	0.25334
2426.13408	0.25435
2424.20552	0.25519
2422.27695	0.25607
2420.34839	0.25712
2418.41982	0.25822
2416.49126	0.25933
2414.56270	0.26040
2412.63413	0.26143
2410.70557	0.26249
2408.77700	0.26364
2406.84844	0.26482
2404.91987	0.26583
2402.99131	0.26679
2401.06274	0.26795
2399.13418	0.26918
2397.20562	0.27037
2395.27705	0.27162
2393.34849	0.27280
2391.41992	0.27385
2389.49136	0.27504
2387.56279	0.27650
2385.63423	0.27818
2383.70566	0.28016
2381.77710	0.28262
2379.84854	0.28541
2377.91997	0.28832
2375.99141	0.29149
2374.06284	0.29507
2372.13428	0.29893
2370.20571	0.30313
2368.27715	0.30754
2366.34858	0.31164
2364.42002	0.31528
2362.49146	0.31894
2360.56289	0.32208
2358.63433	0.32353
2356.70576	0.32368
2354.77720	0.32268
2352.84863	0.32081
2350.92007	0.31881
2348.99150	0.31762
2347.06294	0.31807
2345.13437	0.32084
2343.20581	0.32524
2341.27725	0.32832
2339.34868	0.32960
2337.42012	0.33037
2335.49155	0.33109
2333.56299	0.33216
2331.63442	0.33360
2329.70586	0.33499
2327.77729	0.33619
2325.84873	0.33724
2323.92017	0.33818
2321.99160	0.33873
2320.06304	0.33904
2318.13447	0.33942
2316.20591	0.33976
2314.27734	0.34040
2312.34878	0.34157
2310.42021	0.34279
2308.49165	0.34371
2306.56309	0.34447
2304.63452	0.34526
2302.70596	0.34627
2300.77739	0.34750
2298.84883	0.34881
2296.92026	0.35026
2294.99170	0.35183
2293.06313	0.35339
2291.13457	0.35486
2289.20601	0.35639
2287.27744	0.35794
2285.34888	0.35943
2283.42031	0.36101
2281.49175	0.36283
2279.56318	0.36492
2277.63462	0.36706
2275.70605	0.36908
2273.77749	0.37098
2271.84893	0.37287
2269.92036	0.37478
2267.99180	0.37678
2266.06323	0.37892
2264.13467	0.38105
2262.20610	0.38313
2260.27754	0.38513
2258.34897	0.38706
2256.42041	0.38902
2254.49185	0.39105
2252.56328	0.39306
2250.63472	0.39510
2248.70615	0.39724
2246.77759	0.39938
2244.84902	0.40146
2242.92046	0.40359
2240.99189	0.40585
2239.06333	0.40800
2237.13477	0.40996
2235.20620	0.41198
2233.27764	0.41420
2231.34907	0.41642
2229.42051	0.41851
2227.49194	0.42057
2225.56338	0.42273
2223.63481	0.42494
2221.70625	0.42713
2219.77769	0.42937
2217.84912	0.43154
2215.92056	0.43352
2213.99199	0.43547
2212.06343	0.43751
2210.13486	0.43954
2208.20630	0.44159
2206.27773	0.44381
2204.34917	0.44600
2202.42061	0.44797
2200.49204	0.44992
2198.56348	0.45198
2196.63491	0.45389
2194.70635	0.45558
2192.77778	0.45731
2190.84922	0.45924
2188.92065	0.46118
2186.99209	0.46296
2185.06353	0.46460
2183.13496	0.46623
2181.20640	0.46784
2179.27783	0.46936
2177.34927	0.47088
2175.42070	0.47241
2173.49214	0.47384
2171.56357	0.47518
2169.63501	0.47646
2167.70645	0.47758
2165.77788	0.47867
2163.84932	0.47988
2161.92075	0.48106
2159.99219	0.48210
2158.06362	0.48314
2156.13506	0.48417
2154.20649	0.48501
2152.27793	0.48568
2150.34937	0.48626
2148.42080	0.48687
2146.49224	0.48741
2144.56367	0.48771
2142.63511	0.48791
2140.70654	0.48818
2138.77798	0.48845
2136.84941	0.48856
2134.92085	0.48854
2132.99229	0.48841
2131.06372	0.48826
2129.13516	0.48816
2127.20659	0.48795
2125.27803	0.48748
2123.34946	0.48680
2121.42090	0.48611
2119.49233	0.48545
2117.56377	0.48477
2115.63521	0.48407
2113.70664	0.48324
2111.77808	0.48223
2109.84951	0.48106
2107.92095	0.47992
2105.99238	0.47885
2104.06382	0.47764
2102.13525	0.47623
2100.20669	0.47484
2098.27812	0.47344
2096.34956	0.47188
2094.42100	0.47025
2092.49243	0.46863
2090.56387	0.46692
2088.63530	0.46505
2086.70674	0.46316
2084.77817	0.46133
2082.84961	0.45945
2080.92104	0.45738
2078.99248	0.45521
2077.06392	0.45298
2075.13535	0.45077
2073.20679	0.44861
2071.27822	0.44628
2069.34966	0.44381
2067.42109	0.44148
2065.49253	0.43930
2063.56396	0.43694
2061.63540	0.43439
2059.70684	0.43181
2057.77827	0.42916
2055.84971	0.42639
2053.92114	0.42366
2051.99258	0.42119
2050.06401	0.41881
2048.13545	0.41617
2046.20688	0.41327
2044.27832	0.41049
2042.34976	0.40785
2040.42119	0.40507
2038.49263	0.40215
2036.56406	0.39934
2034.63550	0.39669
2032.70693	0.39393
2030.77837	0.39107
2028.84980	0.38823
2026.92124	0.38540
2024.99268	0.38256
2023.06411	0.37982
2021.13555	0.37712
2019.20698	0.37446
2017.27842	0.37178
2015.34985	0.36877
2013.42129	0.36566
2011.49272	0.36281
2009.56416	0.36022
2007.63560	0.35764
2005.70703	0.35490
2003.77847	0.35209
2001.84990	0.34939
1999.92134	0.34678
1997.99277	0.34412
1996.06421	0.34147
1994.13564	0.33906
1992.20708	0.33682
1990.27852	0.33427
1988.34995	0.33157
1986.42139	0.32895
1984.49282	0.32635
1982.56426	0.32383
1980.63569	0.32143
1978.70713	0.31912
1976.77856	0.31687
1974.85000	0.31471
1972.92144	0.31258
1970.99287	0.31051
1969.06431	0.30863
1967.13574	0.30681
1965.20718	0.30466
1963.27861	0.30237
1961.35005	0.30030
1959.42148	0.29839
1957.49292	0.29652
1955.56436	0.29469
1953.63579	0.29285
1951.70723	0.29094
1949.77866	0.28920
1947.85010	0.28772
1945.92153	0.28640
1943.99297	0.28520
1942.06440	0.28383
1940.13584	0.28197
1938.20728	0.28008
1936.27871	0.27856
1934.35015	0.27728
1932.42158	0.27607
1930.49302	0.27485
1928.56445	0.27366
1926.63589	0.27260
1924.70732	0.27192
1922.77876	0.27133
1920.85020	0.27034
1918.92163	0.26933
1916.99307	0.26836
1915.06450	0.26707
1913.13594	0.26591
1911.20737	0.26530
1909.27881	0.26481
1907.35024	0.26400
1905.42168	0.26305
1903.49312	0.26234
1901.56455	0.26179
1899.63599	0.26124
1897.70742	0.26079
1895.77886	0.26051
1893.85029	0.26014
1891.92173	0.25975
1889.99316	0.25972
1888.06460	0.25952
1886.13604	0.25892
1884.20747	0.25844
1882.27891	0.25808
1880.35034	0.25775
1878.42178	0.25752
1876.49321	0.25740
1874.56465	0.25733
1872.63608	0.25762
1870.70752	0.25858
1868.77896	0.25996
1866.85039	0.26021
1864.92183	0.25922
1862.99326	0.25846
1861.06470	0.25841
1859.13613	0.25878
1857.20757	0.25909
1855.27900	0.25935
1853.35044	0.25970
1851.42187	0.26025
1849.49331	0.26102
1847.56475	0.26210
1845.63618	0.26347
1843.70762	0.26469
1841.77905	0.26490
1839.85049	0.26474
1837.92192	0.26532
1835.99336	0.26624
1834.06479	0.26709
1832.13623	0.26837
1830.20767	0.27043
1828.27910	0.27199
1826.35054	0.27262
1824.42197	0.27354
1822.49341	0.27439
1820.56484	0.27516
1818.63628	0.27632
1816.70771	0.27787
1814.77915	0.27952
1812.85059	0.28152
1810.92202	0.28387
1808.99346	0.28582
1807.06489	0.28729
1805.13633	0.28891
1803.20776	0.29132
1801.27920	0.29428
1799.35063	0.29709
1797.42207	0.29931
1795.49351	0.30171
1793.56494	0.30502
1791.63638	0.30899
1789.70781	0.31172
1787.77925	0.31344
1785.85068	0.31621
1783.92212	0.31991
1781.99355	0.32394
1780.06499	0.32817
1778.13643	0.33237
1776.20786	0.33650
1774.27930	0.34146
1772.35073	0.34808
1770.42217	0.35418
1768.49360	0.35844
1766.56504	0.36265
1764.63647	0.36751
1762.70791	0.37360
1760.77935	0.38133
1758.85078	0.38823
1756.92222	0.39509
1754.99365	0.40264
1753.06509	0.40996
1751.13652	0.41940
1749.20796	0.43109
1747.27939	0.44154
1745.35083	0.45019
1743.42227	0.45935
1741.49370	0.46944
1739.56514	0.48135
1737.63657	0.49341
1735.70801	0.50435
1733.77944	0.52096
1731.85088	0.53973
1729.92231	0.55375
1727.99375	0.56807
1726.06519	0.58405
1724.13662	0.60218
1722.20806	0.62189
1720.27949	0.64049
1718.35093	0.66314
1716.42236	0.69572
1714.49380	0.72463
1712.56523	0.74735
1710.63667	0.77022
1708.70811	0.79578
1706.77954	0.82546
1704.85098	0.86089
1702.92241	0.89235
1700.99385	0.92360
1699.06528	0.97037
1697.13672	1.01354
1695.20815	1.05746
1693.27959	1.10028
1691.35103	1.13549
1689.42246	1.17716
1687.49390	1.22179
1685.56533	1.26536
1683.63677	1.33200
1681.70820	1.39986
1679.77964	1.44245
1677.85107	1.48391
1675.92251	1.53263
1673.99395	1.59338
1672.06538	1.64799
1670.13682	1.70160
1668.20825	1.77078
1666.27969	1.82725
1664.35112	1.87722
1662.42256	1.94265
1660.49399	2.01820
1658.56543	2.07689
1656.63687	2.12398
1654.70830	2.16740
1652.77974	2.23085
1650.85117	2.28624
1648.92261	2.30334
1646.99404	2.32468
1645.06548	2.34453
1643.13691	2.35633
1641.20835	2.36060
1639.27979	2.36643
1637.35122	2.37079
1635.42266	2.36679
1633.49409	2.35375
1631.56553	2.33611
1629.63696	2.31643
1627.70840	2.28603
1625.77983	2.25132
1623.85127	2.20607
1621.92271	2.15065
1619.99414	2.10324
1618.06558	2.05833
1616.13701	1.99315
1614.20845	1.92565
1612.27988	1.87479
1610.35132	1.82281
1608.42275	1.76623
1606.49419	1.71005
1604.56562	1.65860
1602.63706	1.60913
1600.70850	1.56112
1598.77993	1.51757
1596.85137	1.47743
1594.92280	1.43873
1592.99424	1.40128
1591.06567	1.36722
1589.13711	1.33608
1587.20854	1.30796
1585.27998	1.28257
1583.35142	1.25931
1581.42285	1.23850
1579.49429	1.22142
1577.56572	1.20731
1575.63716	1.19052
1573.70859	1.17514
1571.78003	1.16569
1569.85146	1.15766
1567.92290	1.14940
1565.99434	1.14387
1564.06577	1.14133
1562.13721	1.14082
1560.20864	1.14399
1558.28008	1.15431
1556.35151	1.16143
1554.42295	1.16441
1552.49438	1.16868
1550.56582	1.17151
1548.63726	1.17091
1546.70869	1.16697
1544.78013	1.15962
1542.85156	1.14851
1540.92300	1.12989
1538.99443	1.09650
1537.06587	1.07037
1535.13730	1.05316
1533.20874	1.03065
1531.28018	1.00639
1529.35161	0.98890
1527.42305	0.97303
1525.49448	0.95695
1523.56592	0.94369
1521.63735	0.93131
1519.70879	0.91768
1517.78022	0.90567
1515.85166	0.89211
1513.92310	0.87755
1511.99453	0.86485
1510.06597	0.85416
1508.13740	0.84444
1506.20884	0.82642
1504.28027	0.80846
1502.35171	0.79895
1500.42314	0.79186
1498.49458	0.78482
1496.56602	0.77604
1494.63745	0.76642
1492.70889	0.75927
1490.78032	0.75405
1488.85176	0.74796
1486.92319	0.74082
1484.99463	0.73464
1483.06606	0.73019
1481.13750	0.72707
1479.20894	0.72502
1477.28037	0.72447
1475.35181	0.72548
1473.42324	0.72709
1471.49468	0.72699
1469.56611	0.72479
1467.63755	0.72272
1465.70898	0.72158
1463.78042	0.72075
1461.85186	0.72024
1459.92329	0.72125
1457.99473	0.72426
1456.06616	0.72584
1454.13760	0.72267
1452.20903	0.71888
1450.28047	0.71573
1448.35190	0.71293
1446.42334	0.70993
1444.49478	0.70699
1442.56621	0.70430
1440.63765	0.70154
1438.70908	0.69883
1436.78052	0.69559
1434.85195	0.69120
1432.92339	0.68753
1430.99482	0.68555
1429.06626	0.68475
1427.13770	0.68463
1425.20913	0.68553
1423.28057	0.68727
1421.35200	0.68888
1419.42344	0.69049
1417.49487	0.69104
1415.56631	0.68956
1413.63774	0.68831
1411.70918	0.68844
1409.78062	0.68963
1407.85205	0.69136
1405.92349	0.69366
1403.99492	0.69578
1402.06636	0.69660
1400.13779	0.69632
1398.20923	0.69492
1396.28066	0.69224
1394.35210	0.68797
1392.42354	0.68255
1390.49497	0.67749
1388.56641	0.67272
1386.63784	0.66716
1384.70928	0.66097
1382.78071	0.65509
1380.85215	0.64973
1378.92358	0.64520
1376.99502	0.64200
1375.06646	0.64021
1373.13789	0.63906
1371.20933	0.63795
1369.28076	0.63688
1367.35220	0.63549
1365.42363	0.63398
1363.49507	0.63283
1361.56650	0.63126
1359.63794	0.62893
1357.70937	0.62682
1355.78081	0.62522
1353.85225	0.62389
1351.92368	0.62277
1349.99512	0.62196
1348.06655	0.62131
1346.13799	0.62047
1344.20942	0.61952
1342.28086	0.61893
1340.35229	0.61887
1338.42373	0.61858
1336.49517	0.61761
1334.56660	0.61673
1332.63804	0.61644
1330.70947	0.61663
1328.78091	0.61722
1326.85234	0.61813
1324.92378	0.61927
1322.99521	0.62055
1321.06665	0.62189
1319.13809	0.62314
1317.20952	0.62389
1315.28096	0.62400
1313.35239	0.62369
1311.42383	0.62299
1309.49526	0.62221
1307.56670	0.62161
1305.63813	0.62101
1303.70957	0.62032
1301.78101	0.61951
1299.85244	0.61849
1297.92388	0.61732
1295.99531	0.61598
1294.06675	0.61442
1292.13818	0.61289
1290.20962	0.61148
1288.28105	0.60997
1286.35249	0.60834
1284.42393	0.60680
1282.49536	0.60522
1280.56680	0.60344
1278.63823	0.60160
1276.70967	0.60000
1274.78110	0.59883
1272.85254	0.59800
1270.92397	0.59728
1268.99541	0.59648
1267.06685	0.59552
1265.13828	0.59442
1263.20972	0.59333
1261.28115	0.59246
1259.35259	0.59171
1257.42402	0.59093
1255.49546	0.59030
1253.56689	0.58999
1251.63833	0.58998
1249.70977	0.59016
1247.78120	0.59036
1245.85264	0.59030
1243.92407	0.58967
1241.99551	0.58847
1240.06694	0.58689
1238.13838	0.58491
1236.20981	0.58244
1234.28125	0.57958
1232.35269	0.57665
1230.42412	0.57385
1228.49556	0.57123
1226.56699	0.56885
1224.63843	0.56670
1222.70986	0.56461
1220.78130	0.56257
1218.85273	0.56067
1216.92417	0.55894
1214.99561	0.55738
1213.06704	0.55613
1211.13848	0.55523
1209.20991	0.55445
1207.28135	0.55357
1205.35278	0.55268
1203.42422	0.55185
1201.49565	0.55090
1199.56709	0.54977
1197.63853	0.54861
1195.70996	0.54752
1193.78140	0.54659
1191.85283	0.54594
1189.92427	0.54546
1187.99570	0.54499
1186.06714	0.54454
1184.13857	0.54430
1182.21001	0.54463
1180.28145	0.54582
1178.35288	0.54767
1176.42432	0.54958
1174.49575	0.55110
1172.56719	0.55215
1170.63862	0.55277
1168.71006	0.55302
1166.78149	0.55312
1164.85293	0.55320
1162.92437	0.55330
1160.99580	0.55330
1159.06724	0.55309
1157.13867	0.55264
1155.21011	0.55179
1153.28154	0.55037
1151.35298	0.54856
1149.42441	0.54631
1147.49585	0.54344
1145.56729	0.54030
1143.63872	0.53745
1141.71016	0.53510
1139.78159	0.53326
1137.85303	0.53198
1135.92446	0.53125
1133.99590	0.53095
1132.06733	0.53086
1130.13877	0.53094
1128.21021	0.53123
1126.28164	0.53157
1124.35308	0.53159
1122.42451	0.53141
1120.49595	0.53152
1118.56738	0.53190
1116.63882	0.53220
1114.71025	0.53234
1112.78169	0.53250
1110.85312	0.53299
1108.92456	0.53398
1106.99600	0.53512
1105.06743	0.53605
1103.13887	0.53689
1101.21030	0.53783
1099.28174	0.53908
1097.35317	0.54096
1095.42461	0.54359
1093.49604	0.54706
1091.56748	0.55170
1089.63892	0.55749
1087.71035	0.56428
1085.78179	0.57223
1083.85322	0.58059
1081.92466	0.58788
1079.99609	0.59319
1078.06753	0.59589
1076.13896	0.59559
1074.21040	0.59254
1072.28184	0.58734
1070.35327	0.58088
1068.42471	0.57391
1066.49614	0.56691
1064.56758	0.56049
1062.63901	0.55498
1060.71045	0.55022
1058.78188	0.54603
1056.85332	0.54236
1054.92476	0.53894
1052.99619	0.53568
1051.06763	0.53304
1049.13906	0.53124
1047.21050	0.52995
1045.28193	0.52906
1043.35337	0.52837
1041.42480	0.52753
1039.49624	0.52682
1037.56768	0.52670
1035.63911	0.52675
1033.71055	0.52622
1031.78198	0.52504
1029.85342	0.52356
1027.92485	0.52208
1025.99629	0.52077
1024.06772	0.51973
1022.13916	0.51897
1020.21060	0.51844
1018.28203	0.51810
1016.35347	0.51791
1014.42490	0.51758
1012.49634	0.51703
1010.56777	0.51666
1008.63921	0.51678
1006.71064	0.51724
1004.78208	0.51812
1002.85352	0.51968
1000.92495	0.52202
998.99639	0.52533
997.06782	0.52954
995.13926	0.53409
993.21069	0.53844
991.28213	0.54186
989.35356	0.54369
987.42500	0.54418
985.49644	0.54404
983.56787	0.54365
981.63931	0.54337
979.71074	0.54383
977.78218	0.54517
975.85361	0.54700
973.92505	0.54912
971.99648	0.55157
970.06792	0.55445
968.13936	0.55783
966.21079	0.56164
964.28223	0.56578
962.35366	0.57035
960.42510	0.57532
958.49653	0.58044
956.56797	0.58587
954.63940	0.59180
952.71084	0.59802
950.78228	0.60432
948.85371	0.61068
946.92515	0.61735
944.99658	0.62411
943.06802	0.63039
941.13945	0.63621
939.21089	0.64176
937.28232	0.64730
935.35376	0.65310
933.42520	0.65888
931.49663	0.66447
929.56807	0.67018
927.63950	0.67597
925.71094	0.68179
923.78237	0.68788
921.85381	0.69398
919.92524	0.70006
917.99668	0.70677
916.06812	0.71462
914.13955	0.72324
912.21099	0.73129
910.28242	0.73833
908.35386	0.74541
906.42529	0.75323
904.49673	0.76193
902.56816	0.77162
900.63960	0.78178
898.71104	0.79137
896.78247	0.80077
894.85391	0.81089
892.92534	0.82125
890.99678	0.83195
889.06821	0.84370
887.13965	0.85559
885.21108	0.86650
883.28252	0.87670
881.35396	0.88665
879.42539	0.89671
877.49683	0.90760
875.56826	0.91955
873.63970	0.93187
871.71113	0.94399
869.78257	0.95497
867.85400	0.96506
865.92544	0.97637
863.99687	0.98865
862.06831	1.00068
860.13975	1.01267
858.21118	1.02476
856.28262	1.03672
854.35405	1.04863
852.42549	1.06117
850.49692	1.07465
848.56836	1.08671
846.63979	1.09589
844.71123	1.10615
842.78267	1.11912
840.85410	1.13123
838.92554	1.14231
836.99697	1.15594
835.06841	1.17077
833.13984	1.18153
831.21128	1.19204
829.28271	1.20876
827.35415	1.22536
825.42559	1.23244
823.49702	1.23334
821.56846	1.23921
819.63989	1.25278
817.71133	1.26755
815.78276	1.28361
813.85420	1.30362
811.92563	1.32345
809.99707	1.33937
808.06851	1.34854
806.13994	1.35868
804.21138	1.38106
802.28281	1.40039
800.35425	1.39708
798.42568	1.39032
796.49712	1.40540
794.56855	1.44348
792.63999	1.49048
790.71143	1.53386
788.78286	1.58453
786.85430	1.64621
784.92573	1.65543
782.99717	1.61320
781.06860	1.64626
779.14004	1.74663
777.21147	1.75079
775.28291	1.71278
773.35435	1.78539
771.42578	2.08998
769.49722	2.44686
767.56865	2.87743
765.64009	4.59384
763.71152	4.58227
761.78296	1.73016
759.85439	1.65642
757.92583	4.54755
755.99727	4.53598
754.06870	4.52441
752.14014	4.51284
750.21157	4.50127
748.28301	2.02444
746.35444	1.68823
744.42588	1.69196
742.49731	1.83358
740.56875	1.69421
738.64019	1.43338
736.71162	1.09309
734.78306	0.82380
732.85449	0.62702
730.92593	0.47830
728.99736	0.42488
727.06880	0.46801
725.14023	0.46924
723.21167	0.36444
721.28311	0.20098
719.35454	0.02667
717.42598	-0.10506
715.49741	-0.18843
713.56885	-0.29422
711.64028	-0.19180
709.71172	0.08990
707.78315	0.14054
705.85459	0.00129
703.92603	-0.02617
701.99746	0.07376
700.06890	0.11720
698.14033	0.17777
696.21177	0.33056
694.28320	0.45026
692.35464	0.46604
690.42607	0.45725
688.49751	0.42091
686.56895	0.41761
684.64038	0.56183
682.71182	0.57074
680.78325	0.40037
678.85469	0.31864
676.92612	0.32576
674.99756	0.38975
673.06899	0.47638
671.14043	0.42175
669.21187	0.32001
667.28330	0.28654
665.35474	0.31292
663.42617	0.33636
661.49761	0.31630
659.56904	0.30312
657.64048	0.31106
655.71191	0.30125
653.78335	0.31943
651.85479	0.37666
649.92622	0.40329
647.99766	0.37005
646.06909	0.33728
644.14053	0.35387
642.21196	0.41107
640.28340	0.44335
638.35483	0.39119
636.42627	0.34555
634.49771	0.35564
632.56914	0.39754
630.64058	0.53076
628.71201	0.64813
626.78345	0.42521
624.85488	0.28906
622.92632	0.27128
620.99775	0.29957
619.06919	0.40136
617.14062	0.59048
615.21206	0.44924
613.28350	0.24150
611.35493	0.18891
609.42637	0.23539
607.49780	0.26863
605.56924	0.27907
603.64067	0.34287
601.71211	0.41623
599.78354	0.40853
597.85498	0.41412
595.92642	0.39266
593.99785	0.33918
592.06929	0.35755
590.14072	0.43326
588.21216	0.47933
586.28359	0.49357
584.35503	0.34704
582.42646	0.18336
580.49790	0.17179
578.56934	0.20609
576.64077	0.20608
574.71221	0.21080
572.78364	0.21905
570.85508	0.20681
568.92651	0.16066
566.99795	0.14759
565.06938	0.23243
563.14082	0.43836
561.21226	0.88470
559.28369	0.79519
557.35513	0.51981
555.42656	0.42802
553.49800	0.45477
551.56943	0.60596
549.64087	0.73910
547.71230	0.53975
545.78374	0.43717
543.85518	0.43775
541.92661	0.40215
539.99805	0.33375
538.06948	0.29600
536.14092	0.29447
534.21235	0.31991
532.28379	0.31524
530.35522	0.25334
528.42666	0.21503
526.49810	0.23423
524.56953	0.28553
522.64097	0.34882
520.71240	0.43853
518.78384	0.49148
516.85527	0.47795
514.92671	0.43478
512.99814	0.33593
511.06958	0.29929
509.14102	0.41522
507.21245	0.67500
505.28389	0.48652
503.35532	0.33294
501.42676	0.32861
499.49819	0.31517
