3997.91411	0.08401
3995.98555	0.08414
3994.05698	0.08461
3992.12842	0.08514
3990.19985	0.08542
3988.27129	0.08554
3986.34272	0.08582
3984.41416	0.08634
3982.48560	0.08691
3980.55703	0.08744
3978.62847	0.08769
3976.69990	0.08747
3974.77134	0.08722
3972.84277	0.08744
3970.91421	0.08795
3968.98564	0.08826
3967.05708	0.08798
3965.12852	0.08744
3963.19995	0.08742
3961.27139	0.08790
3959.34282	0.08831
3957.41426	0.08852
3955.48569	0.08863
3953.55713	0.08852
3951.62856	0.08827
3949.70000	0.08822
3947.77144	0.08841
3945.84287	0.08863
3943.91431	0.08886
3941.98574	0.08887
3940.05718	0.08829
3938.12861	0.08778
3936.20005	0.08780
3934.27148	0.08796
3932.34292	0.08811
3930.41436	0.08830
3928.48579	0.08845
3926.55723	0.08859
3924.62866	0.08867
3922.70010	0.08840
3920.77153	0.08795
3918.84297	0.08763
3916.91440	0.08746
3914.98584	0.08746
3913.05728	0.08738
3911.12871	0.08702
3909.20015	0.08672
3907.27158	0.08680
3905.34302	0.08741
3903.41445	0.08827
3901.48589	0.08873
3899.55732	0.08904
3897.62876	0.08908
3895.70020	0.08827
3893.77163	0.08736
3891.84307	0.08716
3889.91450	0.08728
3887.98594	0.08705
3886.05737	0.08695
3884.12881	0.08716
3882.20024	0.08708
3880.27168	0.08694
3878.34312	0.08722
3876.41455	0.08764
3874.48599	0.08819
3872.55742	0.08901
3870.62886	0.08995
3868.70029	0.09059
3866.77173	0.09015
3864.84316	0.08960
3862.91460	0.08993
3860.98604	0.09046
3859.05747	0.09077
3857.12891	0.09100
3855.20034	0.09137
3853.27178	0.09307
3851.34321	0.09538
3849.41465	0.09483
3847.48608	0.09322
3845.55752	0.09211
3843.62896	0.09210
3841.70039	0.09343
3839.77183	0.09550
3837.84326	0.09769
3835.91470	0.09895
3833.98613	0.09862
3832.05757	0.09802
3830.12900	0.09789
3828.20044	0.09799
3826.27187	0.09871
3824.34331	0.09994
3822.41475	0.10134
3820.48618	0.10336
3818.55762	0.10473
3816.62905	0.10515
3814.70049	0.10588
3812.77192	0.10615
3810.84336	0.10601
3808.91479	0.10632
3806.98623	0.10750
3805.05767	0.10903
3803.12910	0.11025
3801.20054	0.11228
3799.27197	0.11455
3797.34341	0.11516
3795.41484	0.11533
3793.48628	0.11555
3791.55771	0.11600
3789.62915	0.11732
3787.70059	0.11918
3785.77202	0.12089
3783.84346	0.12234
3781.91489	0.12366
3779.98633	0.12539
3778.05776	0.12746
3776.12920	0.12866
3774.20063	0.12945
3772.27207	0.13088
3770.34351	0.13297
3768.41494	0.13503
3766.48638	0.13668
3764.55781	0.13896
3762.62925	0.14133
3760.70068	0.14316
3758.77212	0.14528
3756.84355	0.14767
3754.91499	0.14966
3752.98643	0.15186
3751.05786	0.15538
3749.12930	0.15980
3747.20073	0.16252
3745.27217	0.16497
3743.34360	0.16950
3741.41504	0.17338
3739.48647	0.17564
3737.55791	0.17885
3735.62935	0.18405
3733.70078	0.19025
3731.77222	0.19555
3729.84365	0.19974
3727.91509	0.20375
3725.98652	0.20917
3724.05796	0.21598
3722.12939	0.22268
3720.20083	0.22929
3718.27227	0.23598
3716.34370	0.24262
3714.41514	0.24951
3712.48657	0.25850
3710.55801	0.27229
3708.62944	0.28748
3706.70088	0.29929
3704.77231	0.30983
3702.84375	0.32243
3700.91519	0.33969
3698.98662	0.35867
3697.05806	0.37589
3695.12949	0.39388
3693.20093	0.41331
3691.27236	0.43450
3689.34380	0.46210
3687.41523	0.49644
3685.48667	0.52665
3683.55811	0.55273
3681.62954	0.58064
3679.70098	0.61177
3677.77241	0.64447
3675.84385	0.68394
3673.91528	0.73735
3671.98672	0.78038
3670.05815	0.81849
3668.12959	0.87145
3666.20103	0.92024
3664.27246	0.96074
3662.34390	1.00369
3660.41533	1.05022
3658.48677	1.09645
3656.55820	1.14590
3654.62964	1.20102
3652.70107	1.24680
3650.77251	1.28576
3648.84395	1.33994
3646.91538	1.40876
3644.98682	1.46094
3643.05825	1.50063
3641.12969	1.54022
3639.20112	1.58381
3637.27256	1.62822
3635.34399	1.67187
3633.41543	1.71551
3631.48687	1.75599
3629.55830	1.79646
3627.62974	1.85008
3625.70117	1.90168
3623.77261	1.93675
3621.84404	1.96971
3619.91548	2.00797
3617.98691	2.05440
3616.05835	2.09834
3614.12979	2.13491
3612.20122	2.17359
3610.27266	2.21286
3608.34409	2.25300
3606.41553	2.29585
3604.48696	2.33542
3602.55840	2.37100
3600.62983	2.40996
3598.70127	2.45180
3596.77271	2.49104
3594.84414	2.53045
3592.91558	2.57314
3590.98701	2.61450
3589.05845	2.65180
3587.12988	2.69467
3585.20132	2.74226
3583.27275	2.78280
3581.34419	2.81967
3579.41562	2.85980
3577.48706	2.90390
3575.55850	2.94828
3573.62993	2.99185
3571.70137	3.03334
3569.77280	3.07321
3567.84424	3.11678
3565.91567	3.17077
3563.98711	3.22203
3562.05854	3.26279
3560.12998	3.30332
3558.20142	3.34704
3556.27285	3.39314
3554.34429	3.44012
3552.41572	3.48933
3550.48716	3.53879
3548.55859	3.58451
3546.63003	3.62861
3544.70146	3.67559
3542.77290	3.72472
3540.84434	3.77294
3538.91577	3.81779
3536.98721	3.85923
3535.05864	3.90488
3533.13008	3.95612
3531.20151	4.00750
3529.27295	4.05692
3527.34438	4.10575
3525.41582	4.15318
3523.48726	4.20052
3521.55869	4.25142
3519.63013	4.30154
3517.70156	4.34871
3515.77300	4.39543
3513.84443	4.44448
3511.91587	4.49537
3509.98730	4.54149
3508.05874	4.58328
3506.13018	4.63399
3504.20161	4.69572
3502.27305	4.75529
3500.34448	4.80150
3498.41592	4.83955
3496.48735	4.88162
3494.55879	4.92485
3492.63022	4.96726
3490.70166	5.01632
3488.77310	5.06878
3486.84453	5.12097
3484.91597	5.17515
3482.98740	5.22585
3481.05884	5.27103
3479.13027	5.31674
3477.20171	5.36378
3475.27314	5.40965
3473.34458	5.45554
3471.41602	5.50377
3469.48745	5.55827
3467.55889	5.62151
3465.63032	5.68268
3463.70176	5.73145
3461.77319	5.77019
3459.84463	5.81010
3457.91606	5.85984
3455.98750	5.91142
3454.05894	5.95446
3452.13037	5.99738
3450.20181	6.04719
3448.27324	6.09586
3446.34468	6.14016
3444.41611	6.19201
3442.48755	6.25498
3440.55898	6.30402
3438.63042	6.34979
3436.70186	6.40631
3434.77329	6.44844
3432.84473	6.47949
3430.91616	6.51943
3428.98760	6.57518
3427.05903	6.63961
3425.13047	6.69458
3423.20190	6.72220
3421.27334	6.75457
3419.34478	6.81467
3417.41621	6.87802
3415.48765	6.94032
3413.55908	7.00848
3411.63052	7.08595
3409.70195	7.14489
3407.77339	7.16605
3405.84482	7.17660
3403.91626	7.23387
3401.98770	7.32249
3400.05913	7.35129
3398.13057	7.34580
3396.20200	7.39391
3394.27344	7.47260
3392.34487	7.50442
3390.41631	7.51102
3388.48774	7.53948
3386.55918	7.60525
3384.63062	7.69018
3382.70205	7.78002
3380.77349	7.82278
3378.84492	7.75887
3376.91636	7.71729
3374.98779	7.77442
3373.05923	7.84068
3371.13066	7.85418
3369.20210	7.86080
3367.27354	7.87807
3365.34497	7.90027
3363.41641	7.94662
3361.48784	8.01811
3359.55928	8.05166
3357.63071	8.02409
3355.70215	8.02767
3353.77358	8.04903
3351.84502	8.06175
3349.91646	8.09588
3347.98789	8.15339
3346.05933	8.17941
3344.13076	8.15108
3342.20220	8.15063
3340.27363	8.16419
3338.34507	8.12241
3336.41650	8.06352
3334.48794	8.07230
3332.55937	8.09992
3330.63081	8.11200
3328.70225	8.16564
3326.77368	8.25002
3324.84512	8.29311
3322.91655	8.21089
3320.98799	8.07658
3319.05942	8.04138
3317.13086	8.15988
3315.20229	8.33336
3313.27373	8.38452
3311.34517	8.31230
3309.41660	8.27558
3307.48804	8.32410
3305.55947	8.37548
3303.63091	8.33060
3301.70234	8.19786
3299.77378	8.11574
3297.84521	8.13389
3295.91665	8.21890
3293.98809	8.31866
3292.05952	8.41591
3290.13096	8.46302
3288.20239	8.39891
3286.27383	8.36227
3284.34526	8.44049
3282.41670	8.53923
3280.48813	8.53825
3278.55957	8.45010
3276.63101	8.37069
3274.70244	8.37646
3272.77388	8.39275
3270.84531	8.31290
3268.91675	8.27445
3266.98818	8.36949
3265.05962	8.46805
3263.13105	8.47894
3261.20249	8.46733
3259.27393	8.48381
3257.34536	8.58031
3255.41680	8.67013
3253.48823	8.58090
3251.55967	8.41284
3249.63110	8.35789
3247.70254	8.38410
3245.77397	8.33418
3243.84541	8.24747
3241.91685	8.21255
3239.98828	8.25850
3238.05972	8.36468
3236.13115	8.45551
3234.20259	8.51741
3232.27402	8.47853
3230.34546	8.32558
3228.41689	8.24489
3226.48833	8.29264
3224.55977	8.31722
3222.63120	8.25664
3220.70264	8.24475
3218.77407	8.29959
3216.84551	8.28874
3214.91694	8.27248
3212.98838	8.32596
3211.05981	8.30800
3209.13125	8.16170
3207.20269	7.99070
3205.27412	7.86825
3203.34556	7.78958
3201.41699	7.77379
3199.48843	7.84727
3197.55986	7.90744
3195.63130	7.86757
3193.70273	7.82484
3191.77417	7.80439
3189.84561	7.72557
3187.91704	7.62191
3185.98848	7.56207
3184.05991	7.54150
3182.13135	7.52065
3180.20278	7.46643
3178.27422	7.37819
3176.34565	7.29338
3174.41709	7.25300
3172.48853	7.23377
3170.55996	7.18429
3168.63140	7.11066
3166.70283	7.02737
3164.77427	6.95475
3162.84570	6.92404
3160.91714	6.89466
3158.98857	6.82003
3157.06001	6.72598
3155.13145	6.64115
3153.20288	6.56986
3151.27432	6.50673
3149.34575	6.44535
3147.41719	6.39032
3145.48862	6.33676
3143.56006	6.27333
3141.63149	6.20075
3139.70293	6.12290
3137.77437	6.05242
3135.84580	5.98810
3133.91724	5.91663
3131.98867	5.83987
3130.06011	5.76556
3128.13154	5.69634
3126.20298	5.62636
3124.27441	5.55265
3122.34585	5.47908
3120.41729	5.40862
3118.48872	5.34217
3116.56016	5.27504
3114.63159	5.20305
3112.70303	5.13364
3110.77446	5.06758
3108.84590	4.99588
3106.91733	4.92107
3104.98877	4.84938
3103.06021	4.78036
3101.13164	4.71305
3099.20308	4.64808
3097.27451	4.58363
3095.34595	4.52063
3093.41738	4.45871
3091.48882	4.39056
3089.56025	4.31861
3087.63169	4.25206
3085.70312	4.19147
3083.77456	4.13213
3081.84600	4.07109
3079.91743	4.00813
3077.98887	3.94510
3076.06030	3.88440
3074.13174	3.82656
3072.20317	3.76916
3070.27461	3.71045
3068.34604	3.65146
3066.41748	3.59256
3064.48892	3.53507
3062.56035	3.48032
3060.63179	3.42545
3058.70322	3.36879
3056.77466	3.31355
3054.84609	3.26140
3052.91753	3.21019
3050.98896	3.15858
3049.06040	3.10671
3047.13184	3.05565
3045.20327	3.00593
3043.27471	2.95641
3041.34614	2.90667
3039.41758	2.85761
3037.48901	2.80983
3035.56045	2.76306
3033.63188	2.71707
3031.70332	2.67176
3029.77476	2.62668
3027.84619	2.58151
3025.91763	2.53646
3023.98906	2.49265
3022.06050	2.45085
3020.13193	2.40967
3018.20337	2.36768
3016.27480	2.32536
3014.34624	2.28442
3012.41768	2.24542
3010.48911	2.20703
3008.56055	2.16863
3006.63198	2.13072
3004.70342	2.09396
3002.77485	2.05857
3000.84629	2.02396
2998.91772	1.98967
2996.98916	1.95579
2995.06060	1.92266
2993.13203	1.89027
2991.20347	1.85866
2989.27490	1.82801
2987.34634	1.79795
2985.41777	1.76821
2983.48921	1.73907
2981.56064	1.71065
2979.63208	1.68241
2977.70352	1.65430
2975.77495	1.62715
2973.84639	1.60099
2971.91782	1.57511
2969.98926	1.54925
2968.06069	1.52305
2966.13213	1.49656
2964.20356	1.47079
2962.27500	1.44588
2960.34644	1.42122
2958.41787	1.39685
2956.48931	1.37297
2954.56074	1.34943
2952.63218	1.32569
2950.70361	1.30168
2948.77505	1.27830
2946.84648	1.25606
2944.91792	1.23450
2942.98936	1.21300
2941.06079	1.19156
2939.13223	1.17052
2937.20366	1.14964
2935.27510	1.12877
2933.34653	1.10801
2931.41797	1.08690
2929.48940	1.06580
2927.56084	1.04549
2925.63228	1.02595
2923.70371	1.00746
2921.77515	0.99018
2919.84658	0.97322
2917.91802	0.95608
2915.98945	0.93923
2914.06089	0.92315
2912.13232	0.90793
2910.20376	0.89327
2908.27520	0.87886
2906.34663	0.86434
2904.41807	0.84969
2902.48950	0.83581
2900.56094	0.82277
2898.63237	0.80955
2896.70381	0.79607
2894.77524	0.78299
2892.84668	0.77066
2890.91812	0.75891
2888.98955	0.74739
2887.06099	0.73603
2885.13242	0.72499
2883.20386	0.71431
2881.27529	0.70385
2879.34673	0.69339
2877.41816	0.68302
2875.48960	0.67264
2873.56104	0.66196
2871.63247	0.65120
2869.70391	0.64027
2867.77534	0.62892
2865.84678	0.61731
2863.91821	0.60550
2861.98965	0.59362
2860.06108	0.58192
2858.13252	0.57045
2856.20396	0.55934
2854.27539	0.54927
2852.34683	0.54051
2850.41826	0.53234
2848.48970	0.52422
2846.56113	0.51629
2844.63257	0.50890
2842.70400	0.50244
2840.77544	0.49651
2838.84687	0.49046
2836.91831	0.48442
2834.98975	0.47836
2833.06118	0.47213
2831.13262	0.46599
2829.20405	0.46007
2827.27549	0.45414
2825.34692	0.44803
2823.41836	0.44176
2821.48979	0.43551
2819.56123	0.42945
2817.63267	0.42346
2815.70410	0.41745
2813.77554	0.41153
2811.84697	0.40579
2809.91841	0.40025
2807.98984	0.39484
2806.06128	0.38947
2804.13271	0.38410
2802.20415	0.37870
2800.27559	0.37340
2798.34702	0.36840
2796.41846	0.36364
2794.48989	0.35888
2792.56133	0.35411
2790.63276	0.34947
2788.70420	0.34486
2786.77563	0.34019
2784.84707	0.33558
2782.91851	0.33112
2780.98994	0.32685
2779.06138	0.32275
2777.13281	0.31874
2775.20425	0.31473
2773.27568	0.31081
2771.34712	0.30698
2769.41855	0.30324
2767.48999	0.29949
2765.56143	0.29561
2763.63286	0.29183
2761.70430	0.28853
2759.77573	0.28543
2757.84717	0.28215
2755.91860	0.27888
2753.99004	0.27570
2752.06147	0.27249
2750.13291	0.26930
2748.20435	0.26623
2746.27578	0.26324
2744.34722	0.26029
2742.41865	0.25741
2740.49009	0.25471
2738.56152	0.25215
2736.63296	0.24959
2734.70439	0.24700
2732.77583	0.24446
2730.84727	0.24208
2728.91870	0.23983
2726.99014	0.23753
2725.06157	0.23512
2723.13301	0.23276
2721.20444	0.23049
2719.27588	0.22827
2717.34731	0.22608
2715.41875	0.22409
2713.49019	0.22227
2711.56162	0.22032
2709.63306	0.21836
2707.70449	0.21663
2705.77593	0.21496
2703.84736	0.21319
2701.91880	0.21158
2699.99023	0.21019
2698.06167	0.20876
2696.13311	0.20715
2694.20454	0.20550
2692.27598	0.20396
2690.34741	0.20248
2688.41885	0.20111
2686.49028	0.19977
2684.56172	0.19842
2682.63315	0.19719
2680.70459	0.19605
2678.77603	0.19482
2676.84746	0.19357
2674.91890	0.19232
2672.99033	0.19091
2671.06177	0.18948
2669.13320	0.18838
2667.20464	0.18748
2665.27607	0.18655
2663.34751	0.18555
2661.41895	0.18452
2659.49038	0.18358
2657.56182	0.18279
2655.63325	0.18203
2653.70469	0.18124
2651.77612	0.18052
2649.84756	0.17976
2647.91899	0.17894
2645.99043	0.17829
2644.06187	0.17782
2642.13330	0.17728
2640.20474	0.17668
2638.27617	0.17614
2636.34761	0.17562
2634.41904	0.17510
2632.49048	0.17461
2630.56191	0.17410
2628.63335	0.17357
2626.70479	0.17315
2624.77622	0.17280
2622.84766	0.17250
2620.91909	0.17223
2618.99053	0.17191
2617.06196	0.17151
2615.13340	0.17122
2613.20483	0.17115
2611.27627	0.17112
2609.34771	0.17098
2607.41914	0.17077
2605.49058	0.17050
2603.56201	0.17021
2601.63345	0.17011
2599.70488	0.17021
2597.77632	0.17041
2595.84775	0.17048
2593.91919	0.17028
2591.99062	0.17012
2590.06206	0.17023
2588.13350	0.17047
2586.20493	0.17076
2584.27637	0.17105
2582.34780	0.17127
2580.41924	0.17145
2578.49067	0.17158
2576.56211	0.17166
2574.63354	0.17183
2572.70498	0.17212
2570.77642	0.17245
2568.84785	0.17287
2566.91929	0.17336
2564.99072	0.17383
2563.06216	0.17426
2561.13359	0.17471
2559.20503	0.17519
2557.27646	0.17561
2555.34790	0.17594
2553.41934	0.17625
2551.49077	0.17660
2549.56221	0.17705
2547.63364	0.17767
2545.70508	0.17835
2543.77651	0.17894
2541.84795	0.17941
2539.91938	0.17987
2537.99082	0.18050
2536.06226	0.18133
2534.13369	0.18221
2532.20513	0.18299
2530.27656	0.18365
2528.34800	0.18429
2526.41943	0.18489
2524.49087	0.18544
2522.56230	0.18605
2520.63374	0.18677
2518.70518	0.18754
2516.77661	0.18834
2514.84805	0.18920
2512.91948	0.19010
2510.99092	0.19087
2509.06235	0.19152
2507.13379	0.19218
2505.20522	0.19292
2503.27666	0.19373
2501.34810	0.19462
2499.41953	0.19549
2497.49097	0.19625
2495.56240	0.19700
2493.63384	0.19781
2491.70527	0.19867
2489.77671	0.19957
2487.84814	0.20049
2485.91958	0.20126
2483.99102	0.20202
2482.06245	0.20294
2480.13389	0.20387
2478.20532	0.20460
2476.27676	0.20529
2474.34819	0.20611
2472.41963	0.20704
2470.49106	0.20801
2468.56250	0.20893
2466.63394	0.20984
2464.70537	0.21091
2462.77681	0.21216
2460.84824	0.21330
2458.91968	0.21413
2456.99111	0.21484
2455.06255	0.21567
2453.13398	0.21657
2451.20542	0.21744
2449.27686	0.21839
2447.34829	0.21944
2445.41973	0.22039
2443.49116	0.22129
2441.56260	0.22225
2439.63403	0.22318
2437.70547	0.22407
2435.77690	0.22506
2433.84834	0.22613
2431.91978	0.22719
2429.99121	0.22821
2428.06265	0.22925
2426.13408	0.23039
2424.20552	0.23156
2422.27695	0.23269
2420.34839	0.23388
2418.41982	0.23511
2416.49126	0.23626
2414.56270	0.23728
2412.63413	0.23832
2410.70557	0.23945
2408.77700	0.24062
2406.84844	0.24185
2404.91987	0.24317
2402.99131	0.24445
2401.06274	0.24561
2399.13418	0.24674
2397.20562	0.24793
2395.27705	0.24918
2393.34849	0.25041
2391.41992	0.25168
2389.49136	0.25305
2387.56279	0.25459
2385.63423	0.25635
2383.70566	0.25842
2381.77710	0.26092
2379.84854	0.26393
2377.91997	0.26742
2375.99141	0.27135
2374.06284	0.27576
2372.13428	0.28066
2370.20571	0.28629
2368.27715	0.29242
2366.34858	0.29830
2364.42002	0.30374
2362.49146	0.30874
2360.56289	0.31187
2358.63433	0.31248
2356.70576	0.31239
2354.77720	0.31151
2352.84863	0.30857
2350.92007	0.30444
2348.99150	0.30156
2347.06294	0.30149
2345.13437	0.30528
2343.20581	0.31180
2341.27725	0.31627
2339.34868	0.31733
2337.42012	0.31762
2335.49155	0.31861
2333.56299	0.31980
2331.63442	0.32103
2329.70586	0.32230
2327.77729	0.32314
2325.84873	0.32329
2323.92017	0.32329
2321.99160	0.32335
2320.06304	0.32310
2318.13447	0.32276
2316.20591	0.32289
2314.27734	0.32363
2312.34878	0.32466
2310.42021	0.32556
2308.49165	0.32617
2306.56309	0.32676
2304.63452	0.32757
2302.70596	0.32856
2300.77739	0.32977
2298.84883	0.33125
2296.92026	0.33280
2294.99170	0.33424
2293.06313	0.33570
2291.13457	0.33722
2289.20601	0.33874
2287.27744	0.34027
2285.34888	0.34183
2283.42031	0.34345
2281.49175	0.34521
2279.56318	0.34723
2277.63462	0.34951
2275.70605	0.35181
2273.77749	0.35392
2271.84893	0.35594
2269.92036	0.35803
2267.99180	0.36014
2266.06323	0.36220
2264.13467	0.36436
2262.20610	0.36654
2260.27754	0.36857
2258.34897	0.37062
2256.42041	0.37278
2254.49185	0.37488
2252.56328	0.37698
2250.63472	0.37917
2248.70615	0.38135
2246.77759	0.38352
2244.84902	0.38566
2242.92046	0.38782
2240.99189	0.39009
2239.06333	0.39229
2237.13477	0.39443
2235.20620	0.39668
2233.27764	0.39899
2231.34907	0.40124
2229.42051	0.40352
2227.49194	0.40583
2225.56338	0.40803
2223.63481	0.41023
2221.70625	0.41255
2219.77769	0.41487
2217.84912	0.41707
2215.92056	0.41922
2213.99199	0.42144
2212.06343	0.42366
2210.13486	0.42581
2208.20630	0.42788
2206.27773	0.42991
2204.34917	0.43196
2202.42061	0.43396
2200.49204	0.43593
2198.56348	0.43805
2196.63491	0.44028
2194.70635	0.44230
2192.77778	0.44406
2190.84922	0.44587
2188.92065	0.44784
2186.99209	0.44981
2185.06353	0.45164
2183.13496	0.45338
2181.20640	0.45513
2179.27783	0.45688
2177.34927	0.45855
2175.42070	0.46012
2173.49214	0.46160
2171.56357	0.46304
2169.63501	0.46443
2167.70645	0.46574
2165.77788	0.46705
2163.84932	0.46832
2161.92075	0.46949
2159.99219	0.47059
2158.06362	0.47155
2156.13506	0.47234
2154.20649	0.47312
2152.27793	0.47395
2150.34937	0.47472
2148.42080	0.47537
2146.49224	0.47591
2144.56367	0.47632
2142.63511	0.47665
2140.70654	0.47692
2138.77798	0.47710
2136.84941	0.47712
2134.92085	0.47713
2132.99229	0.47720
2131.06372	0.47722
2129.13516	0.47707
2127.20659	0.47684
2125.27803	0.47662
2123.34946	0.47620
2121.42090	0.47547
2119.49233	0.47463
2117.56377	0.47380
2115.63521	0.47305
2113.70664	0.47246
2111.77808	0.47178
2109.84951	0.47081
2107.92095	0.46963
2105.99238	0.46836
2104.06382	0.46709
2102.13525	0.46578
2100.20669	0.46446
2098.27812	0.46313
2096.34956	0.46169
2094.42100	0.46001
2092.49243	0.45813
2090.56387	0.45628
2088.63530	0.45453
2086.70674	0.45282
2084.77817	0.45088
2082.84961	0.44878
2080.92104	0.44669
2078.99248	0.44451
2077.06392	0.44224
2075.13535	0.43996
2073.20679	0.43768
2071.27822	0.43543
2069.34966	0.43317
2067.42109	0.43077
2065.49253	0.42825
2063.56396	0.42576
2061.63540	0.42339
2059.70684	0.42097
2057.77827	0.41836
2055.84971	0.41568
2053.92114	0.41299
2051.99258	0.41026
2050.06401	0.40758
2048.13545	0.40491
2046.20688	0.40213
2044.27832	0.39933
2042.34976	0.39665
2040.42119	0.39395
2038.49263	0.39115
2036.56406	0.38837
2034.63550	0.38556
2032.70693	0.38268
2030.77837	0.37984
2028.84980	0.37699
2026.92124	0.37413
2024.99268	0.37125
2023.06411	0.36834
2021.13555	0.36545
2019.20698	0.36259
2017.27842	0.35973
2015.34985	0.35686
2013.42129	0.35400
2011.49272	0.35110
2009.56416	0.34820
2007.63560	0.34539
2005.70703	0.34266
2003.77847	0.33996
2001.84990	0.33725
1999.92134	0.33451
1997.99277	0.33178
1996.06421	0.32911
1994.13564	0.32656
1992.20708	0.32414
1990.27852	0.32165
1988.34995	0.31904
1986.42139	0.31645
1984.49282	0.31399
1982.56426	0.31164
1980.63569	0.30931
1978.70713	0.30690
1976.77856	0.30450
1974.85000	0.30221
1972.92144	0.29999
1970.99287	0.29782
1969.06431	0.29577
1967.13574	0.29375
1965.20718	0.29165
1963.27861	0.28954
1961.35005	0.28760
1959.42148	0.28571
1957.49292	0.28374
1955.56436	0.28184
1953.63579	0.28019
1951.70723	0.27858
1949.77866	0.27679
1947.85010	0.27492
1945.92153	0.27323
1943.99297	0.27179
1942.06440	0.27038
1940.13584	0.26884
1938.20728	0.26734
1936.27871	0.26590
1934.35015	0.26446
1932.42158	0.26318
1930.49302	0.26205
1928.56445	0.26095
1926.63589	0.25982
1924.70732	0.25877
1922.77876	0.25777
1920.85020	0.25671
1918.92163	0.25570
1916.99307	0.25483
1915.06450	0.25396
1913.13594	0.25308
1911.20737	0.25234
1909.27881	0.25165
1907.35024	0.25092
1905.42168	0.25013
1903.49312	0.24949
1901.56455	0.24902
1899.63599	0.24858
1897.70742	0.24815
1895.77886	0.24771
1893.85029	0.24727
1891.92173	0.24689
1889.99316	0.24669
1888.06460	0.24652
1886.13604	0.24625
1884.20747	0.24595
1882.27891	0.24561
1880.35034	0.24536
1878.42178	0.24526
1876.49321	0.24524
1874.56465	0.24522
1872.63608	0.24529
1870.70752	0.24550
1868.77896	0.24595
1866.85039	0.24627
1864.92183	0.24627
1862.99326	0.24635
1861.06470	0.24657
1859.13613	0.24687
1857.20757	0.24720
1855.27900	0.24760
1853.35044	0.24804
1851.42187	0.24858
1849.49331	0.24921
1847.56475	0.24989
1845.63618	0.25065
1843.70762	0.25162
1841.77905	0.25251
1839.85049	0.25303
1837.92192	0.25375
1835.99336	0.25463
1834.06479	0.25553
1832.13623	0.25647
1830.20767	0.25789
1828.27910	0.25948
1826.35054	0.26053
1824.42197	0.26166
1822.49341	0.26295
1820.56484	0.26422
1818.63628	0.26560
1816.70771	0.26726
1814.77915	0.26892
1812.85059	0.27062
1810.92202	0.27267
1808.99346	0.27487
1807.06489	0.27687
1805.13633	0.27867
1803.20776	0.28071
1801.27920	0.28313
1799.35063	0.28597
1797.42207	0.28864
1795.49351	0.29111
1793.56494	0.29390
1791.63638	0.29755
1789.70781	0.30110
1787.77925	0.30373
1785.85068	0.30676
1783.92212	0.31048
1781.99355	0.31450
1780.06499	0.31873
1778.13643	0.32309
1776.20786	0.32717
1774.27930	0.33145
1772.35073	0.33730
1770.42217	0.34382
1768.49360	0.34920
1766.56504	0.35424
1764.63647	0.35946
1762.70791	0.36534
1760.77935	0.37290
1758.85078	0.37997
1756.92222	0.38696
1754.99365	0.39468
1753.06509	0.40165
1751.13652	0.40985
1749.20796	0.42045
1747.27939	0.43099
1745.35083	0.44012
1743.42227	0.44975
1741.49370	0.46046
1739.56514	0.47308
1737.63657	0.48568
1735.70801	0.49667
1733.77944	0.51332
1731.85088	0.53335
1729.92231	0.54899
1727.99375	0.56471
1726.06519	0.58161
1724.13662	0.60029
1722.20806	0.62063
1720.27949	0.63937
1718.35093	0.66114
1716.42236	0.69356
1714.49380	0.72483
1712.56523	0.75011
1710.63667	0.77443
1708.70811	0.80034
1706.77954	0.82966
1704.85098	0.86476
1702.92241	0.89611
1700.99385	0.92722
1699.06528	0.97434
1697.13672	1.01809
1695.20815	1.06285
1693.27959	1.10652
1691.35103	1.14151
1689.42246	1.18205
1687.49390	1.22516
1685.56533	1.26641
1683.63677	1.32988
1681.70820	1.39688
1679.77964	1.44003
1677.85107	1.48096
1675.92251	1.52749
1673.99395	1.58518
1672.06538	1.63717
1670.13682	1.68866
1668.20825	1.75599
1666.27969	1.80993
1664.35112	1.85521
1662.42256	1.91253
1660.49399	1.97924
1658.56543	2.03300
1656.63687	2.07726
1654.70830	2.11688
1652.77974	2.17600
1650.85117	2.23034
1648.92261	2.24852
1646.99404	2.27484
1645.06548	2.30263
1643.13691	2.31960
1641.20835	2.32801
1639.27979	2.33609
1637.35122	2.34075
1635.42266	2.33822
1633.49409	2.32827
1631.56553	2.31243
1629.63696	2.29401
1627.70840	2.26477
1625.77983	2.23032
1623.85127	2.18595
1621.92271	2.13413
1619.99414	2.09034
1618.06558	2.04708
1616.13701	1.98288
1614.20845	1.91757
1612.27988	1.86832
1610.35132	1.81659
1608.42275	1.76123
1606.49419	1.70712
1604.56562	1.65680
1602.63706	1.60799
1600.70850	1.56069
1598.77993	1.51750
1596.85137	1.47694
1594.92280	1.43697
1592.99424	1.39796
1591.06567	1.36296
1589.13711	1.33118
1587.20854	1.30189
1585.27998	1.27468
1583.35142	1.24901
1581.42285	1.22543
1579.49429	1.20567
1577.56572	1.18830
1575.63716	1.16730
1573.70859	1.14912
1571.78003	1.13730
1569.85146	1.12520
1567.92290	1.11262
1565.99434	1.10372
1564.06577	1.09709
1562.13721	1.09223
1560.20864	1.09006
1558.28008	1.09019
1556.35151	1.09029
1554.42295	1.08993
1552.49438	1.08990
1550.56582	1.08824
1548.63726	1.08360
1546.70869	1.07658
1544.78013	1.06725
1542.85156	1.05565
1540.92300	1.03906
1538.99443	1.01256
1537.06587	0.99298
1535.13730	0.97926
1533.20874	0.96068
1531.28018	0.94128
1529.35161	0.92741
1527.42305	0.91425
1525.49448	0.90048
1523.56592	0.88861
1521.63735	0.87741
1519.70879	0.86634
1517.78022	0.85712
1515.85166	0.84646
1513.92310	0.83502
1511.99453	0.82479
1510.06597	0.81537
1508.13740	0.80631
1506.20884	0.79319
1504.28027	0.78166
1502.35171	0.77474
1500.42314	0.76855
1498.49458	0.76183
1496.56602	0.75411
1494.63745	0.74682
1492.70889	0.74149
1490.78032	0.73690
1488.85176	0.73133
1486.92319	0.72592
1484.99463	0.72166
1483.06606	0.71824
1481.13750	0.71549
1479.20894	0.71345
1477.28037	0.71210
1475.35181	0.71127
1473.42324	0.71099
1471.49468	0.71051
1469.56611	0.70902
1467.63755	0.70697
1465.70898	0.70493
1463.78042	0.70338
1461.85186	0.70257
1459.92329	0.70224
1457.99473	0.70233
1456.06616	0.70215
1454.13760	0.70052
1452.20903	0.69835
1450.28047	0.69584
1448.35190	0.69314
1446.42334	0.69047
1444.49478	0.68798
1442.56621	0.68572
1440.63765	0.68350
1438.70908	0.68100
1436.78052	0.67765
1434.85195	0.67400
1432.92339	0.67147
1430.99482	0.66992
1429.06626	0.66901
1427.13770	0.66871
1425.20913	0.66888
1423.28057	0.66929
1421.35200	0.66949
1419.42344	0.66950
1417.49487	0.66936
1415.56631	0.66862
1413.63774	0.66779
1411.70918	0.66745
1409.78062	0.66774
1407.85205	0.66838
1405.92349	0.66912
1403.99492	0.66969
1402.06636	0.66960
1400.13779	0.66877
1398.20923	0.66714
1396.28066	0.66475
1394.35210	0.66155
1392.42354	0.65780
1390.49497	0.65410
1388.56641	0.65032
1386.63784	0.64601
1384.70928	0.64151
1382.78071	0.63721
1380.85215	0.63320
1378.92358	0.62991
1376.99502	0.62735
1375.06646	0.62536
1373.13789	0.62409
1371.20933	0.62352
1369.28076	0.62319
1367.35220	0.62248
1365.42363	0.62115
1363.49507	0.61948
1361.56650	0.61767
1359.63794	0.61599
1357.70937	0.61475
1355.78081	0.61374
1353.85225	0.61265
1351.92368	0.61148
1349.99512	0.61038
1348.06655	0.60942
1346.13799	0.60846
1344.20942	0.60740
1342.28086	0.60644
1340.35229	0.60573
1338.42373	0.60509
1336.49517	0.60433
1334.56660	0.60360
1332.63804	0.60317
1330.70947	0.60310
1328.78091	0.60335
1326.85234	0.60374
1324.92378	0.60414
1322.99521	0.60458
1321.06665	0.60515
1319.13809	0.60576
1317.20952	0.60610
1315.28096	0.60595
1313.35239	0.60535
1311.42383	0.60450
1309.49526	0.60352
1307.56670	0.60263
1305.63813	0.60193
1303.70957	0.60119
1301.78101	0.60031
1299.85244	0.59932
1297.92388	0.59827
1295.99531	0.59714
1294.06675	0.59590
1292.13818	0.59457
1290.20962	0.59328
1288.28105	0.59209
1286.35249	0.59088
1284.42393	0.58954
1282.49536	0.58815
1280.56680	0.58676
1278.63823	0.58539
1276.70967	0.58416
1274.78110	0.58313
1272.85254	0.58226
1270.92397	0.58153
1268.99541	0.58080
1267.06685	0.57990
1265.13828	0.57888
1263.20972	0.57812
1261.28115	0.57769
1259.35259	0.57722
1257.42402	0.57659
1255.49546	0.57608
1253.56689	0.57592
1251.63833	0.57607
1249.70977	0.57618
1247.78120	0.57599
1245.85264	0.57557
1243.92407	0.57495
1241.99551	0.57409
1240.06694	0.57294
1238.13838	0.57148
1236.20981	0.56970
1234.28125	0.56766
1232.35269	0.56546
1230.42412	0.56327
1228.49556	0.56132
1226.56699	0.55959
1224.63843	0.55784
1222.70986	0.55600
1220.78130	0.55427
1218.85273	0.55268
1216.92417	0.55127
1214.99561	0.55020
1213.06704	0.54934
1211.13848	0.54856
1209.20991	0.54788
1207.28135	0.54726
1205.35278	0.54652
1203.42422	0.54559
1201.49565	0.54454
1199.56709	0.54341
1197.63853	0.54236
1195.70996	0.54148
1193.78140	0.54081
1191.85283	0.54022
1189.92427	0.53968
1187.99570	0.53930
1186.06714	0.53905
1184.13857	0.53890
1182.21001	0.53899
1180.28145	0.53961
1178.35288	0.54087
1176.42432	0.54239
1174.49575	0.54362
1172.56719	0.54433
1170.63862	0.54473
1168.71006	0.54511
1166.78149	0.54564
1164.85293	0.54636
1162.92437	0.54704
1160.99580	0.54741
1159.06724	0.54737
1157.13867	0.54687
1155.21011	0.54611
1153.28154	0.54508
1151.35298	0.54348
1149.42441	0.54132
1147.49585	0.53873
1145.56729	0.53585
1143.63872	0.53295
1141.71016	0.53040
1139.78159	0.52834
1137.85303	0.52693
1135.92446	0.52626
1133.99590	0.52601
1132.06733	0.52603
1130.13877	0.52611
1128.21021	0.52586
1126.28164	0.52547
1124.35308	0.52526
1122.42451	0.52507
1120.49595	0.52482
1118.56738	0.52488
1116.63882	0.52551
1114.71025	0.52640
1112.78169	0.52715
1110.85312	0.52778
1108.92456	0.52866
1106.99600	0.52970
1105.06743	0.53040
1103.13887	0.53087
1101.21030	0.53163
1099.28174	0.53280
1097.35317	0.53455
1095.42461	0.53712
1093.49604	0.54076
1091.56748	0.54586
1089.63892	0.55239
1087.71035	0.56006
1085.78179	0.56866
1083.85322	0.57750
1081.92466	0.58508
1079.99609	0.59044
1078.06753	0.59324
1076.13896	0.59308
1074.21040	0.58989
1072.28184	0.58425
1070.35327	0.57731
1068.42471	0.57020
1066.49614	0.56321
1064.56758	0.55667
1062.63901	0.55107
1060.71045	0.54630
1058.78188	0.54208
1056.85332	0.53838
1054.92476	0.53505
1052.99619	0.53210
1051.06763	0.52977
1049.13906	0.52818
1047.21050	0.52733
1045.28193	0.52721
1043.35337	0.52756
1041.42480	0.52787
1039.49624	0.52787
1037.56768	0.52779
1035.63911	0.52777
1033.71055	0.52754
1031.78198	0.52663
1029.85342	0.52492
1027.92485	0.52281
1025.99629	0.52083
1024.06772	0.51947
1022.13916	0.51876
1020.21060	0.51801
1018.28203	0.51714
1016.35347	0.51660
1014.42490	0.51625
1012.49634	0.51587
1010.56777	0.51555
1008.63921	0.51533
1006.71064	0.51546
1004.78208	0.51609
1002.85352	0.51745
1000.92495	0.51987
998.99639	0.52333
997.06782	0.52750
995.13926	0.53206
993.21069	0.53627
991.28213	0.53923
989.35356	0.54092
987.42500	0.54159
985.49644	0.54133
983.56787	0.54086
981.63931	0.54092
979.71074	0.54157
977.78218	0.54277
975.85361	0.54456
973.92505	0.54690
971.99648	0.54986
970.06792	0.55334
968.13936	0.55711
966.21079	0.56107
964.28223	0.56535
962.35366	0.57006
960.42510	0.57500
958.49653	0.58018
956.56797	0.58566
954.63940	0.59158
952.71084	0.59801
950.78228	0.60471
948.85371	0.61133
946.92515	0.61768
944.99658	0.62375
943.06802	0.62964
941.13945	0.63554
939.21089	0.64155
937.28232	0.64773
935.35376	0.65400
933.42520	0.66007
931.49663	0.66577
929.56807	0.67120
927.63950	0.67696
925.71094	0.68309
923.78237	0.68915
921.85381	0.69512
919.92524	0.70159
917.99668	0.70904
916.06812	0.71706
914.13955	0.72522
912.21099	0.73313
910.28242	0.74131
908.35386	0.75040
906.42529	0.75925
904.49673	0.76767
902.56816	0.77614
900.63960	0.78463
898.71104	0.79392
896.78247	0.80407
894.85391	0.81492
892.92534	0.82649
890.99678	0.83764
889.06821	0.84776
887.13965	0.85757
885.21108	0.86795
883.28252	0.87897
881.35396	0.89024
879.42539	0.90260
877.49683	0.91603
875.56826	0.92775
873.63970	0.93802
871.71113	0.95009
869.78257	0.96337
867.85400	0.97583
865.92544	0.98810
863.99687	1.00003
862.06831	1.01087
860.13975	1.02177
858.21118	1.03340
856.28262	1.04526
854.35405	1.05720
852.42549	1.06891
850.49692	1.08118
848.56836	1.09451
846.63979	1.10735
844.71123	1.11843
842.78267	1.12855
840.85410	1.14033
838.92554	1.15469
836.99697	1.16824
835.06841	1.17628
833.13984	1.18238
831.21128	1.19376
829.28271	1.20938
827.35415	1.22595
825.42559	1.24215
823.49702	1.25535
821.56846	1.26376
819.63989	1.26951
817.71133	1.27497
815.78276	1.28320
813.85420	1.29615
811.92563	1.31256
809.99707	1.32526
808.06851	1.32380
806.13994	1.32471
804.21138	1.34285
802.28281	1.36019
800.35425	1.37046
798.42568	1.39841
796.49712	1.44870
794.56855	1.47734
792.63999	1.46428
790.71143	1.44996
788.78286	1.43129
786.85430	1.38888
784.92573	1.39711
782.99717	1.53124
781.06860	1.80552
779.14004	2.02966
777.21147	1.96439
775.28291	1.97493
773.35435	1.90959
771.42578	1.70014
769.49722	1.65327
767.56865	1.62837
765.64009	1.49049
763.71152	1.49694
761.78296	1.67461
759.85439	1.64090
757.92583	1.54443
755.99727	1.57504
754.06870	1.54554
752.14014	1.45256
750.21157	1.45736
748.28301	1.55335
746.35444	1.64956
744.42588	1.49132
742.49731	1.22667
740.56875	1.13548
738.64019	1.19101
736.71162	1.18821
734.78306	1.10426
732.85449	1.11296
730.92593	1.56844
728.99736	4.37398
727.06880	4.36241
725.14023	1.01985
723.21167	0.88808
721.28311	0.69968
719.35454	0.53702
717.42598	0.42401
715.49741	0.35219
713.56885	0.31765
711.64028	0.21801
709.71172	0.11741
707.78315	0.20881
705.85459	0.32463
703.92603	0.27046
701.99746	0.38281
700.06890	4.20041
698.14033	4.18884
696.21177	0.41144
694.28320	0.19977
692.35464	0.20419
690.42607	0.30727
688.49751	0.33762
686.56895	0.33281
684.64038	0.48261
682.71182	1.14062
680.78325	4.08470
678.85469	4.07313
676.92612	0.60842
674.99756	0.40497
673.06899	0.38005
671.14043	0.35690
669.21187	0.46607
667.28330	0.66546
665.35474	0.44202
663.42617	0.26924
661.49761	0.31806
659.56904	0.45016
657.64048	0.62490
655.71191	0.55269
653.78335	0.32254
651.85479	0.23232
649.92622	0.21828
647.99766	0.34643
646.06909	0.65681
644.14053	0.58973
642.21196	0.26684
640.28340	0.12623
638.35483	0.16320
636.42627	0.32831
634.49771	0.42582
632.56914	0.26530
630.64058	0.11036
628.71201	0.04076
626.78345	0.13187
624.85488	0.21793
622.92632	0.18791
620.99775	0.14658
619.06919	0.15438
617.14062	0.18691
615.21206	0.22146
613.28350	0.27015
611.35493	0.34821
609.42637	0.32914
607.49780	0.24236
605.56924	0.30998
603.64067	3.62184
601.71211	3.61027
599.78354	0.42399
597.85498	0.26639
595.92642	0.29949
593.99785	0.40797
592.06929	0.35444
590.14072	0.19186
588.21216	0.10593
586.28359	0.13221
584.35503	0.17573
582.42646	0.21621
580.49790	0.26718
578.56934	0.23758
576.64077	0.19185
574.71221	0.20685
572.78364	0.21494
570.85508	0.12728
568.92651	0.08739
566.99795	0.19830
565.06938	0.25821
563.14082	0.14862
561.21226	0.09652
559.28369	0.08531
557.35513	0.04171
555.42656	0.02274
553.49800	0.06692
551.56943	0.14744
549.64087	0.18099
547.71230	0.14368
545.78374	0.14819
543.85518	0.14572
541.92661	0.11916
539.99805	0.14038
538.06948	0.15275
536.14092	0.12920
534.21235	0.10934
532.28379	0.09341
530.35522	0.08819
528.42666	0.13483
526.49810	0.26156
524.56953	0.42333
522.64097	0.47575
520.71240	0.31112
518.78384	0.18412
516.85527	0.11402
514.92671	0.06102
512.99814	0.07632
511.06958	0.13624
509.14102	0.19080
507.21245	0.27964
505.28389	0.35181
503.35532	0.33390
501.42676	0.28581
499.49819	0.23400
