3997.91411	0.07646
3995.98555	0.07707
3994.05698	0.07764
3992.12842	0.07785
3990.19985	0.07807
3988.27129	0.07850
3986.34272	0.07880
3984.41416	0.07884
3982.48560	0.07891
3980.55703	0.07922
3978.62847	0.07938
3976.69990	0.07951
3974.77134	0.08029
3972.84277	0.08124
3970.91421	0.08141
3968.98564	0.08105
3967.05708	0.08052
3965.12852	0.08016
3963.19995	0.08056
3961.27139	0.08145
3959.34282	0.08222
3957.41426	0.08278
3955.48569	0.08287
3953.55713	0.08250
3951.62856	0.08257
3949.70000	0.08366
3947.77144	0.08466
3945.84287	0.08444
3943.91431	0.08435
3941.98574	0.08474
3940.05718	0.08370
3938.12861	0.08207
3936.20005	0.08176
3934.27148	0.08296
3932.34292	0.08511
3930.41436	0.08657
3928.48579	0.08576
3926.55723	0.08457
3924.62866	0.08502
3922.70010	0.08538
3920.77153	0.08466
3918.84297	0.08480
3916.91440	0.08543
3914.98584	0.08417
3913.05728	0.08164
3911.12871	0.08017
3909.20015	0.08019
3907.27158	0.08172
3905.34302	0.08559
3903.41445	0.09089
3901.48589	0.09366
3899.55732	0.09248
3897.62876	0.08912
3895.70020	0.08575
3893.77163	0.08476
3891.84307	0.08635
3889.91450	0.08702
3887.98594	0.08583
3886.05737	0.08664
3884.12881	0.08892
3882.20024	0.08968
3880.27168	0.08974
3878.34312	0.08811
3876.41455	0.08597
3874.48599	0.08712
3872.55742	0.09092
3870.62886	0.09429
3868.70029	0.09501
3866.77173	0.09312
3864.84316	0.09294
3862.91460	0.09389
3860.98604	0.09191
3859.05747	0.08975
3857.12891	0.09079
3855.20034	0.09524
3853.27178	0.10302
3851.34321	0.10575
3849.41465	0.09891
3847.48608	0.09303
3845.55752	0.09149
3843.62896	0.09401
3841.70039	0.09863
3839.77183	0.10332
3837.84326	0.10672
3835.91470	0.10647
3833.98613	0.10374
3832.05757	0.10123
3830.12900	0.09940
3828.20044	0.09913
3826.27187	0.10073
3824.34331	0.10264
3822.41475	0.10574
3820.48618	0.11131
3818.55762	0.11327
3816.62905	0.11141
3814.70049	0.10933
3812.77192	0.10580
3810.84336	0.10312
3808.91479	0.10393
3806.98623	0.10821
3805.05767	0.11268
3803.12910	0.11597
3801.20054	0.11992
3799.27197	0.12082
3797.34341	0.11862
3795.41484	0.11678
3793.48628	0.11441
3791.55771	0.11265
3789.62915	0.11282
3787.70059	0.11447
3785.77202	0.11732
3783.84346	0.12019
3781.91489	0.12199
3779.98633	0.12429
3778.05776	0.12637
3776.12920	0.12591
3774.20063	0.12563
3772.27207	0.12797
3770.34351	0.13237
3768.41494	0.13634
3766.48638	0.13809
3764.55781	0.13914
3762.62925	0.14029
3760.70068	0.14309
3758.77212	0.14827
3756.84355	0.15249
3754.91499	0.15494
3752.98643	0.15972
3751.05786	0.16891
3749.12930	0.17659
3747.20073	0.17715
3745.27217	0.17753
3743.34360	0.17975
3741.41504	0.18070
3739.48647	0.18225
3737.55791	0.18743
3735.62935	0.19665
3733.70078	0.20472
3731.77222	0.20604
3729.84365	0.20520
3727.91509	0.20693
3725.98652	0.21260
3724.05796	0.22048
3722.12939	0.22756
3720.20083	0.23313
3718.27227	0.23773
3716.34370	0.24310
3714.41514	0.25111
3712.48657	0.26410
3710.55801	0.28210
3708.62944	0.29591
3706.70088	0.30334
3704.77231	0.31167
3702.84375	0.32440
3700.91519	0.34204
3698.98662	0.36018
3697.05806	0.37689
3695.12949	0.39564
3693.20093	0.41697
3691.27236	0.44211
3689.34380	0.47466
3687.41523	0.50923
3685.48667	0.53529
3683.55811	0.55830
3681.62954	0.58549
3679.70098	0.61839
3677.77241	0.65489
3675.84385	0.69906
3673.91528	0.75501
3671.98672	0.79688
3670.05815	0.83516
3668.12959	0.88770
3666.20103	0.93178
3664.27246	0.96861
3662.34390	1.01082
3660.41533	1.05795
3658.48677	1.10556
3656.55820	1.15733
3654.62964	1.21418
3652.70107	1.26104
3650.77251	1.30425
3648.84395	1.36707
3646.91538	1.43824
3644.98682	1.48223
3643.05825	1.51569
3641.12969	1.55364
3639.20112	1.59736
3637.27256	1.64127
3635.34399	1.68429
3633.41543	1.72849
3631.48687	1.77081
3629.55830	1.81553
3627.62974	1.87353
3625.70117	1.92126
3623.77261	1.95064
3621.84404	1.98228
3619.91548	2.02208
3617.98691	2.06974
3616.05835	2.11274
3614.12979	2.14814
3612.20122	2.18687
3610.27266	2.22592
3608.34409	2.26521
3606.41553	2.30674
3604.48696	2.34397
3602.55840	2.37809
3600.62983	2.41782
3598.70127	2.46133
3596.77271	2.50163
3594.84414	2.54131
3592.91558	2.58186
3590.98701	2.61930
3589.05845	2.65610
3587.12988	2.70344
3585.20132	2.75315
3583.27275	2.79044
3581.34419	2.82419
3579.41562	2.86294
3577.48706	2.90621
3575.55850	2.94910
3573.62993	2.99106
3571.70137	3.03212
3569.77280	3.07238
3567.84424	3.11571
3565.91567	3.16958
3563.98711	3.22185
3562.05854	3.26291
3560.12998	3.30261
3558.20142	3.34492
3556.27285	3.38890
3554.34429	3.43309
3552.41572	3.47912
3550.48716	3.52478
3548.55859	3.56850
3546.63003	3.61561
3544.70146	3.66827
3542.77290	3.71658
3540.84434	3.75746
3538.91577	3.80058
3536.98721	3.84851
3535.05864	3.89814
3533.13008	3.94555
3531.20151	3.99255
3529.27295	4.04273
3527.34438	4.09423
3525.41582	4.14143
3523.48726	4.18555
3521.55869	4.23355
3519.63013	4.28292
3517.70156	4.32859
3515.77300	4.37152
3513.84443	4.41583
3511.91587	4.46350
3509.98730	4.51478
3508.05874	4.56716
3506.13018	4.61467
3504.20161	4.65421
3502.27305	4.69188
3500.34448	4.73878
3498.41592	4.79197
3496.48735	4.84468
3494.55879	4.89835
3492.63022	4.94702
3490.70166	4.98522
3488.77310	5.02399
3486.84453	5.07250
3484.91597	5.12770
3482.98740	5.18281
3481.05884	5.23455
3479.13027	5.28363
3477.20171	5.33391
3475.27314	5.38836
3473.34458	5.44325
3471.41602	5.49074
3469.48745	5.52966
3467.55889	5.57102
3465.63032	5.62105
3463.70176	5.67152
3461.77319	5.71606
3459.84463	5.76596
3457.91606	5.82600
3455.98750	5.88539
3454.05894	5.94088
3452.13037	5.99354
3450.20181	6.04103
3448.27324	6.08747
3446.34468	6.13961
3444.41611	6.18583
3442.48755	6.22394
3440.55898	6.27259
3438.63042	6.33589
3436.70186	6.39091
3434.77329	6.42742
3432.84473	6.45656
3430.91616	6.49536
3428.98760	6.55591
3427.05903	6.63199
3425.13047	6.71817
3423.20190	6.78094
3421.27334	6.81128
3419.34478	6.82835
3417.41621	6.84752
3415.48765	6.90085
3413.55908	6.99077
3411.63052	7.07432
3409.70195	7.09597
3407.77339	7.09635
3405.84482	7.12192
3403.91626	7.17030
3401.98770	7.24310
3400.05913	7.30645
3398.13057	7.32578
3396.20200	7.33011
3394.27344	7.37752
3392.34487	7.45839
3390.41631	7.51066
3388.48774	7.51733
3386.55918	7.53806
3384.63062	7.57581
3382.70205	7.61445
3380.77349	7.64737
3378.84492	7.64193
3376.91636	7.64456
3374.98779	7.68585
3373.05923	7.73746
3371.13066	7.76662
3369.20210	7.77760
3367.27354	7.78363
3365.34497	7.81796
3363.41641	7.89424
3361.48784	7.95988
3359.55928	7.98060
3357.63071	7.97114
3355.70215	7.97755
3353.77358	8.00067
3351.84502	8.02075
3349.91646	7.99081
3347.98789	7.96739
3346.05933	8.00858
3344.13076	8.01835
3342.20220	7.99716
3340.27363	8.00258
3338.34507	7.97374
3336.41650	7.94585
3334.48794	8.09758
3332.55937	8.31989
3330.63081	8.31661
3328.70225	8.20870
3326.77368	8.19580
3324.84512	8.21670
3322.91655	8.19692
3320.98799	8.17140
3319.05942	8.14277
3317.13086	8.14117
3315.20229	8.12617
3313.27373	8.03863
3311.34517	7.96819
3309.41660	8.01986
3307.48804	8.10723
3305.55947	8.14289
3303.63091	8.19980
3301.70234	8.20100
3299.77378	8.20010
3297.84521	8.28503
3295.91665	8.25504
3293.98809	8.11275
3292.05952	8.08919
3290.13096	8.12058
3288.20239	8.10074
3286.27383	8.18465
3284.34526	8.32378
3282.41670	8.33344
3280.48813	8.32503
3278.55957	8.44036
3276.63101	8.53834
3274.70244	8.47325
3272.77388	8.37504
3270.84531	8.35338
3268.91675	8.40212
3266.98818	8.37952
3265.05962	8.23306
3263.13105	8.14703
3261.20249	8.20044
3259.27393	8.25473
3257.34536	8.22292
3255.41680	8.16712
3253.48823	8.17656
3251.55967	8.24936
3249.63110	8.22782
3247.70254	8.15416
3245.77397	8.20492
3243.84541	8.26467
3241.91685	8.15858
3239.98828	8.07368
3238.05972	8.13213
3236.13115	8.18217
3234.20259	8.12499
3232.27402	8.04664
3230.34546	8.04959
3228.41689	8.19199
3226.48833	8.32731
3224.55977	8.31435
3222.63120	8.29385
3220.70264	8.27548
3218.77407	8.23897
3216.84551	8.20272
3214.91694	8.13654
3212.98838	8.06762
3211.05981	8.00310
3209.13125	7.99844
3207.20269	8.08064
3205.27412	8.09614
3203.34556	7.96654
3201.41699	7.84429
3199.48843	7.77417
3197.55986	7.71658
3195.63130	7.71586
3193.70273	7.75087
3191.77417	7.71815
3189.84561	7.63552
3187.91704	7.59454
3185.98848	7.56896
3184.05991	7.51390
3182.13135	7.48353
3180.20278	7.47571
3178.27422	7.41074
3176.34565	7.30136
3174.41709	7.22900
3172.48853	7.18359
3170.55996	7.11558
3168.63140	7.05425
3166.70283	7.01404
3164.77427	6.96386
3162.84570	6.89655
3160.91714	6.81360
3158.98857	6.73254
3157.06001	6.66892
3155.13145	6.60487
3153.20288	6.51379
3151.27432	6.41596
3149.34575	6.35879
3147.41719	6.32964
3145.48862	6.27160
3143.56006	6.17386
3141.63149	6.07204
3139.70293	5.98310
3137.77437	5.91275
3135.84580	5.86087
3133.91724	5.80339
3131.98867	5.72782
3130.06011	5.64957
3128.13154	5.58428
3126.20298	5.52546
3124.27441	5.45387
3122.34585	5.37221
3120.41729	5.29635
3118.48872	5.22963
3116.56016	5.16756
3114.63159	5.10023
3112.70303	5.02609
3110.77446	4.95427
3108.84590	4.88557
3106.91733	4.81613
3104.98877	4.74540
3103.06021	4.67502
3101.13164	4.60633
3099.20308	4.54037
3097.27451	4.47530
3095.34595	4.40760
3093.41738	4.33919
3091.48882	4.27398
3089.56025	4.21182
3087.63169	4.14997
3085.70312	4.08599
3083.77456	4.02110
3081.84600	3.95842
3079.91743	3.89685
3077.98887	3.83479
3076.06030	3.77372
3074.13174	3.71396
3072.20317	3.65368
3070.27461	3.59262
3068.34604	3.53294
3066.41748	3.47583
3064.48892	3.42044
3062.56035	3.36499
3060.63179	3.30895
3058.70322	3.25310
3056.77466	3.19841
3054.84609	3.14502
3052.91753	3.09206
3050.98896	3.03994
3049.06040	2.98959
3047.13184	2.94075
3045.20327	2.89207
3043.27471	2.84238
3041.34614	2.79219
3039.41758	2.74349
3037.48901	2.69738
3035.56045	2.65253
3033.63188	2.60760
3031.70332	2.56230
3029.77476	2.51723
3027.84619	2.47354
3025.91763	2.43125
3023.98906	2.38987
3022.06050	2.34896
3020.13193	2.30778
3018.20337	2.26693
3016.27480	2.22712
3014.34624	2.18782
3012.41768	2.14908
3010.48911	2.11113
3008.56055	2.07384
3006.63198	2.03742
3004.70342	2.00168
3002.77485	1.96601
3000.84629	1.93055
2998.91772	1.89575
2996.98916	1.86165
2995.06060	1.82833
2993.13203	1.79585
2991.20347	1.76420
2989.27490	1.73296
2987.34634	1.70153
2985.41777	1.67043
2983.48921	1.64012
2981.56064	1.61026
2979.63208	1.58084
2977.70352	1.55167
2975.77495	1.52239
2973.84639	1.49351
2971.91782	1.46534
2969.98926	1.43781
2968.06069	1.41102
2966.13213	1.38481
2964.20356	1.35891
2962.27500	1.33343
2960.34644	1.30857
2958.41787	1.28446
2956.48931	1.26118
2954.56074	1.23852
2952.63218	1.21622
2950.70361	1.19417
2948.77505	1.17199
2946.84648	1.14961
2944.91792	1.12769
2942.98936	1.10675
2941.06079	1.08647
2939.13223	1.06618
2937.20366	1.04555
2935.27510	1.02516
2933.34653	1.00580
2931.41797	0.98728
2929.48940	0.96955
2927.56084	0.95252
2925.63228	0.93535
2923.70371	0.91807
2921.77515	0.90148
2919.84658	0.88572
2917.91802	0.86996
2915.98945	0.85392
2914.06089	0.83844
2912.13232	0.82401
2910.20376	0.81022
2908.27520	0.79634
2906.34663	0.78244
2904.41807	0.76906
2902.48950	0.75627
2900.56094	0.74371
2898.63237	0.73118
2896.70381	0.71879
2894.77524	0.70658
2892.84668	0.69459
2890.91812	0.68285
2888.98955	0.67124
2887.06099	0.65963
2885.13242	0.64827
2883.20386	0.63731
2881.27529	0.62643
2879.34673	0.61551
2877.41816	0.60492
2875.48960	0.59466
2873.56104	0.58454
2871.63247	0.57448
2869.70391	0.56461
2867.77534	0.55510
2865.84678	0.54555
2863.91821	0.53577
2861.98965	0.52623
2860.06108	0.51713
2858.13252	0.50849
2856.20396	0.50045
2854.27539	0.49258
2852.34683	0.48454
2850.41826	0.47664
2848.48970	0.46876
2846.56113	0.46105
2844.63257	0.45409
2842.70400	0.44769
2840.77544	0.44158
2838.84687	0.43552
2836.91831	0.42933
2834.98975	0.42344
2833.06118	0.41820
2831.13262	0.41303
2829.20405	0.40736
2827.27549	0.40153
2825.34692	0.39588
2823.41836	0.39029
2821.48979	0.38458
2819.56123	0.37873
2817.63267	0.37304
2815.70410	0.36748
2813.77554	0.36187
2811.84697	0.35647
2809.91841	0.35142
2807.98984	0.34645
2806.06128	0.34142
2804.13271	0.33658
2802.20415	0.33199
2800.27559	0.32731
2798.34702	0.32249
2796.41846	0.31782
2794.48989	0.31342
2792.56133	0.30920
2790.63276	0.30520
2788.70420	0.30138
2786.77563	0.29751
2784.84707	0.29342
2782.91851	0.28927
2780.98994	0.28531
2779.06138	0.28155
2777.13281	0.27798
2775.20425	0.27457
2773.27568	0.27114
2771.34712	0.26759
2769.41855	0.26412
2767.48999	0.26082
2765.56143	0.25745
2763.63286	0.25404
2761.70430	0.25081
2759.77573	0.24786
2757.84717	0.24507
2755.91860	0.24220
2753.99004	0.23935
2752.06147	0.23674
2750.13291	0.23420
2748.20435	0.23151
2746.27578	0.22879
2744.34722	0.22612
2742.41865	0.22354
2740.49009	0.22112
2738.56152	0.21879
2736.63296	0.21652
2734.70439	0.21422
2732.77583	0.21191
2730.84727	0.20978
2728.91870	0.20777
2726.99014	0.20574
2725.06157	0.20371
2723.13301	0.20168
2721.20444	0.19967
2719.27588	0.19784
2717.34731	0.19618
2715.41875	0.19441
2713.49019	0.19259
2711.56162	0.19092
2709.63306	0.18934
2707.70449	0.18769
2705.77593	0.18602
2703.84736	0.18441
2701.91880	0.18294
2699.99023	0.18164
2698.06167	0.18036
2696.13311	0.17894
2694.20454	0.17746
2692.27598	0.17609
2690.34741	0.17479
2688.41885	0.17352
2686.49028	0.17231
2684.56172	0.17116
2682.63315	0.17015
2680.70459	0.16929
2678.77603	0.16844
2676.84746	0.16746
2674.91890	0.16639
2672.99033	0.16532
2671.06177	0.16423
2669.13320	0.16320
2667.20464	0.16238
2665.27607	0.16165
2663.34751	0.16083
2661.41895	0.15997
2659.49038	0.15923
2657.56182	0.15860
2655.63325	0.15799
2653.70469	0.15729
2651.77612	0.15652
2649.84756	0.15583
2647.91899	0.15530
2645.99043	0.15492
2644.06187	0.15459
2642.13330	0.15420
2640.20474	0.15371
2638.27617	0.15324
2636.34761	0.15293
2634.41904	0.15263
2632.49048	0.15221
2630.56191	0.15183
2628.63335	0.15153
2626.70479	0.15117
2624.77622	0.15086
2622.84766	0.15070
2620.91909	0.15058
2618.99053	0.15050
2617.06196	0.15054
2615.13340	0.15062
2613.20483	0.15049
2611.27627	0.15020
2609.34771	0.14997
2607.41914	0.14994
2605.49058	0.15004
2603.56201	0.15007
2601.63345	0.15006
2599.70488	0.15018
2597.77632	0.15043
2595.84775	0.15061
2593.91919	0.15066
2591.99062	0.15066
2590.06206	0.15078
2588.13350	0.15109
2586.20493	0.15134
2584.27637	0.15154
2582.34780	0.15187
2580.41924	0.15230
2578.49067	0.15269
2576.56211	0.15300
2574.63354	0.15331
2572.70498	0.15372
2570.77642	0.15424
2568.84785	0.15480
2566.91929	0.15532
2564.99072	0.15581
2563.06216	0.15625
2561.13359	0.15664
2559.20503	0.15710
2557.27646	0.15761
2555.34790	0.15815
2553.41934	0.15878
2551.49077	0.15948
2549.56221	0.16016
2547.63364	0.16071
2545.70508	0.16124
2543.77651	0.16189
2541.84795	0.16262
2539.91938	0.16339
2537.99082	0.16411
2536.06226	0.16483
2534.13369	0.16563
2532.20513	0.16639
2530.27656	0.16701
2528.34800	0.16761
2526.41943	0.16837
2524.49087	0.16919
2522.56230	0.17009
2520.63374	0.17103
2518.70518	0.17184
2516.77661	0.17262
2514.84805	0.17339
2512.91948	0.17410
2510.99092	0.17488
2509.06235	0.17575
2507.13379	0.17663
2505.20522	0.17756
2503.27666	0.17853
2501.34810	0.17942
2499.41953	0.18017
2497.49097	0.18089
2495.56240	0.18175
2493.63384	0.18282
2491.70527	0.18389
2489.77671	0.18484
2487.84814	0.18576
2485.91958	0.18671
2483.99102	0.18767
2482.06245	0.18865
2480.13389	0.18962
2478.20532	0.19052
2476.27676	0.19138
2474.34819	0.19229
2472.41963	0.19329
2470.49106	0.19439
2468.56250	0.19548
2466.63394	0.19648
2464.70537	0.19744
2462.77681	0.19836
2460.84824	0.19927
2458.91968	0.20025
2456.99111	0.20135
2455.06255	0.20237
2453.13398	0.20321
2451.20542	0.20413
2449.27686	0.20521
2447.34829	0.20626
2445.41973	0.20727
2443.49116	0.20836
2441.56260	0.20950
2439.63403	0.21068
2437.70547	0.21186
2435.77690	0.21291
2433.84834	0.21386
2431.91978	0.21492
2429.99121	0.21609
2428.06265	0.21720
2426.13408	0.21821
2424.20552	0.21927
2422.27695	0.22045
2420.34839	0.22170
2418.41982	0.22293
2416.49126	0.22406
2414.56270	0.22518
2412.63413	0.22633
2410.70557	0.22743
2408.77700	0.22853
2406.84844	0.22977
2404.91987	0.23109
2402.99131	0.23228
2401.06274	0.23341
2399.13418	0.23462
2397.20562	0.23591
2395.27705	0.23727
2393.34849	0.23866
2391.41992	0.24001
2389.49136	0.24136
2387.56279	0.24294
2385.63423	0.24487
2383.70566	0.24722
2381.77710	0.25002
2379.84854	0.25322
2377.91997	0.25680
2375.99141	0.26081
2374.06284	0.26537
2372.13428	0.27066
2370.20571	0.27662
2368.27715	0.28284
2366.34858	0.28898
2364.42002	0.29444
2362.49146	0.29836
2360.56289	0.30046
2358.63433	0.30104
2356.70576	0.30025
2354.77720	0.29855
2352.84863	0.29619
2350.92007	0.29299
2348.99150	0.29068
2347.06294	0.29099
2345.13437	0.29492
2343.20581	0.30125
2341.27725	0.30530
2339.34868	0.30614
2337.42012	0.30639
2335.49155	0.30707
2333.56299	0.30787
2331.63442	0.30912
2329.70586	0.31058
2327.77729	0.31150
2325.84873	0.31175
2323.92017	0.31190
2321.99160	0.31239
2320.06304	0.31274
2318.13447	0.31264
2316.20591	0.31263
2314.27734	0.31315
2312.34878	0.31409
2310.42021	0.31515
2308.49165	0.31614
2306.56309	0.31686
2304.63452	0.31748
2302.70596	0.31840
2300.77739	0.31963
2298.84883	0.32088
2296.92026	0.32209
2294.99170	0.32347
2293.06313	0.32507
2291.13457	0.32656
2289.20601	0.32789
2287.27744	0.32926
2285.34888	0.33079
2283.42031	0.33258
2281.49175	0.33465
2279.56318	0.33681
2277.63462	0.33893
2275.70605	0.34107
2273.77749	0.34319
2271.84893	0.34525
2269.92036	0.34735
2267.99180	0.34956
2266.06323	0.35178
2264.13467	0.35387
2262.20610	0.35590
2260.27754	0.35802
2258.34897	0.36026
2256.42041	0.36243
2254.49185	0.36451
2252.56328	0.36662
2250.63472	0.36870
2248.70615	0.37070
2246.77759	0.37275
2244.84902	0.37498
2242.92046	0.37729
2240.99189	0.37953
2239.06333	0.38166
2237.13477	0.38384
2235.20620	0.38614
2233.27764	0.38841
2231.34907	0.39060
2229.42051	0.39285
2227.49194	0.39519
2225.56338	0.39748
2223.63481	0.39967
2221.70625	0.40178
2219.77769	0.40396
2217.84912	0.40619
2215.92056	0.40841
2213.99199	0.41070
2212.06343	0.41298
2210.13486	0.41512
2208.20630	0.41724
2206.27773	0.41938
2204.34917	0.42146
2202.42061	0.42348
2200.49204	0.42547
2198.56348	0.42749
2196.63491	0.42956
2194.70635	0.43155
2192.77778	0.43344
2190.84922	0.43532
2188.92065	0.43728
2186.99209	0.43926
2185.06353	0.44111
2183.13496	0.44275
2181.20640	0.44438
2179.27783	0.44610
2177.34927	0.44781
2175.42070	0.44943
2173.49214	0.45101
2171.56357	0.45254
2169.63501	0.45400
2167.70645	0.45533
2165.77788	0.45655
2163.84932	0.45778
2161.92075	0.45900
2159.99219	0.46013
2158.06362	0.46112
2156.13506	0.46206
2154.20649	0.46305
2152.27793	0.46408
2150.34937	0.46492
2148.42080	0.46544
2146.49224	0.46585
2144.56367	0.46630
2142.63511	0.46672
2140.70654	0.46707
2138.77798	0.46740
2136.84941	0.46763
2134.92085	0.46773
2132.99229	0.46771
2131.06372	0.46762
2129.13516	0.46748
2127.20659	0.46732
2125.27803	0.46711
2123.34946	0.46682
2121.42090	0.46646
2119.49233	0.46589
2117.56377	0.46509
2115.63521	0.46426
2113.70664	0.46351
2111.77808	0.46272
2109.84951	0.46188
2107.92095	0.46093
2105.99238	0.45980
2104.06382	0.45860
2102.13525	0.45737
2100.20669	0.45603
2098.27812	0.45451
2096.34956	0.45294
2094.42100	0.45144
2092.49243	0.44996
2090.56387	0.44839
2088.63530	0.44660
2086.70674	0.44467
2084.77817	0.44277
2082.84961	0.44097
2080.92104	0.43912
2078.99248	0.43708
2077.06392	0.43493
2075.13535	0.43281
2073.20679	0.43062
2071.27822	0.42824
2069.34966	0.42593
2067.42109	0.42386
2065.49253	0.42175
2063.56396	0.41929
2061.63540	0.41664
2059.70684	0.41405
2057.77827	0.41155
2055.84971	0.40908
2053.92114	0.40656
2051.99258	0.40393
2050.06401	0.40122
2048.13545	0.39845
2046.20688	0.39572
2044.27832	0.39316
2042.34976	0.39065
2040.42119	0.38795
2038.49263	0.38506
2036.56406	0.38218
2034.63550	0.37932
2032.70693	0.37650
2030.77837	0.37375
2028.84980	0.37097
2026.92124	0.36814
2024.99268	0.36530
2023.06411	0.36252
2021.13555	0.35988
2019.20698	0.35740
2017.27842	0.35486
2015.34985	0.35191
2013.42129	0.34873
2011.49272	0.34568
2009.56416	0.34285
2007.63560	0.34017
2005.70703	0.33750
2003.77847	0.33478
2001.84990	0.33207
1999.92134	0.32941
1997.99277	0.32669
1996.06421	0.32409
1994.13564	0.32196
1992.20708	0.32004
1990.27852	0.31753
1988.34995	0.31460
1986.42139	0.31175
1984.49282	0.30907
1982.56426	0.30653
1980.63569	0.30403
1978.70713	0.30159
1976.77856	0.29933
1974.85000	0.29720
1972.92144	0.29504
1970.99287	0.29298
1969.06431	0.29119
1967.13574	0.28939
1965.20718	0.28710
1963.27861	0.28467
1961.35005	0.28252
1959.42148	0.28048
1957.49292	0.27854
1955.56436	0.27683
1953.63579	0.27519
1951.70723	0.27336
1949.77866	0.27159
1947.85010	0.27015
1945.92153	0.26898
1943.99297	0.26800
1942.06440	0.26680
1940.13584	0.26484
1938.20728	0.26271
1936.27871	0.26102
1934.35015	0.25961
1932.42158	0.25837
1930.49302	0.25722
1928.56445	0.25607
1926.63589	0.25502
1924.70732	0.25446
1922.77876	0.25410
1920.85020	0.25322
1918.92163	0.25230
1916.99307	0.25132
1915.06450	0.24970
1913.13594	0.24832
1911.20737	0.24784
1909.27881	0.24762
1907.35024	0.24687
1905.42168	0.24571
1903.49312	0.24475
1901.56455	0.24409
1899.63599	0.24356
1897.70742	0.24323
1895.77886	0.24316
1893.85029	0.24296
1891.92173	0.24264
1889.99316	0.24272
1888.06460	0.24248
1886.13604	0.24170
1884.20747	0.24109
1882.27891	0.24063
1880.35034	0.24024
1878.42178	0.24008
1876.49321	0.24009
1874.56465	0.24017
1872.63608	0.24062
1870.70752	0.24203
1868.77896	0.24410
1866.85039	0.24442
1864.92183	0.24291
1862.99326	0.24182
1861.06470	0.24170
1859.13613	0.24207
1857.20757	0.24237
1855.27900	0.24263
1853.35044	0.24301
1851.42187	0.24365
1849.49331	0.24463
1847.56475	0.24606
1845.63618	0.24791
1843.70762	0.24941
1841.77905	0.24928
1839.85049	0.24870
1837.92192	0.24918
1835.99336	0.25014
1834.06479	0.25106
1832.13623	0.25261
1830.20767	0.25529
1828.27910	0.25723
1826.35054	0.25766
1824.42197	0.25829
1822.49341	0.25888
1820.56484	0.25945
1818.63628	0.26060
1816.70771	0.26224
1814.77915	0.26396
1812.85059	0.26613
1810.92202	0.26881
1808.99346	0.27095
1807.06489	0.27240
1805.13633	0.27402
1803.20776	0.27657
1801.27920	0.27993
1799.35063	0.28325
1797.42207	0.28574
1795.49351	0.28829
1793.56494	0.29195
1791.63638	0.29623
1789.70781	0.29858
1787.77925	0.29977
1785.85068	0.30251
1783.92212	0.30655
1781.99355	0.31093
1780.06499	0.31535
1778.13643	0.31949
1776.20786	0.32371
1774.27930	0.32931
1772.35073	0.33700
1770.42217	0.34344
1768.49360	0.34716
1766.56504	0.35091
1764.63647	0.35566
1762.70791	0.36196
1760.77935	0.37004
1758.85078	0.37721
1756.92222	0.38445
1754.99365	0.39216
1753.06509	0.39931
1751.13652	0.40894
1749.20796	0.42131
1747.27939	0.43201
1745.35083	0.44039
1743.42227	0.44941
1741.49370	0.45983
1739.56514	0.47232
1737.63657	0.48469
1735.70801	0.49608
1733.77944	0.51388
1731.85088	0.53339
1729.92231	0.54719
1727.99375	0.56154
1726.06519	0.57782
1724.13662	0.59652
1722.20806	0.61694
1720.27949	0.63620
1718.35093	0.66011
1716.42236	0.69491
1714.49380	0.72457
1712.56523	0.74671
1710.63667	0.76906
1708.70811	0.79446
1706.77954	0.82430
1704.85098	0.85971
1702.92241	0.89035
1700.99385	0.92018
1699.06528	0.96566
1697.13672	1.00705
1695.20815	1.04668
1693.27959	1.08330
1691.35103	1.11295
1689.42246	1.14860
1687.49390	1.18630
1685.56533	1.22231
1683.63677	1.27853
1681.70820	1.33554
1679.77964	1.37005
1677.85107	1.40353
1675.92251	1.44263
1673.99395	1.49145
1672.06538	1.53458
1670.13682	1.57646
1668.20825	1.62960
1666.27969	1.66957
1664.35112	1.70388
1662.42256	1.74809
1660.49399	1.79598
1658.56543	1.83158
1656.63687	1.86246
1654.70830	1.89497
1652.77974	1.95226
1650.85117	2.00536
1648.92261	2.02444
1646.99404	2.05381
1645.06548	2.08691
1643.13691	2.10875
1641.20835	2.12469
1639.27979	2.14123
1637.35122	2.15393
1635.42266	2.15862
1633.49409	2.15358
1631.56553	2.14329
1629.63696	2.13189
1627.70840	2.11050
1625.77983	2.08340
1623.85127	2.04812
1621.92271	2.00542
1619.99414	1.96738
1618.06558	1.92928
1616.13701	1.87249
1614.20845	1.81348
1612.27988	1.76915
1610.35132	1.72279
1608.42275	1.67214
1606.49419	1.62179
1604.56562	1.57474
1602.63706	1.52840
1600.70850	1.48266
1598.77993	1.44039
1596.85137	1.40043
1594.92280	1.36128
1592.99424	1.32293
1591.06567	1.28740
1589.13711	1.25344
1587.20854	1.22097
1585.27998	1.19054
1583.35142	1.16201
1581.42285	1.13595
1579.49429	1.11398
1577.56572	1.09433
1575.63716	1.06800
1573.70859	1.04275
1571.78003	1.02668
1569.85146	1.01013
1567.92290	0.98937
1565.99434	0.97150
1564.06577	0.95649
1562.13721	0.94469
1560.20864	0.93630
1558.28008	0.92019
1556.35151	0.90087
1554.42295	0.88775
1552.49438	0.87550
1550.56582	0.86419
1548.63726	0.85302
1546.70869	0.84387
1544.78013	0.83750
1542.85156	0.83247
1540.92300	0.82555
1538.99443	0.81086
1537.06587	0.79865
1535.13730	0.79220
1533.20874	0.78505
1531.28018	0.77592
1529.35161	0.76925
1527.42305	0.76453
1525.49448	0.75998
1523.56592	0.75592
1521.63735	0.75168
1519.70879	0.74510
1517.78022	0.73859
1515.85166	0.73189
1513.92310	0.72530
1511.99453	0.72098
1510.06597	0.71893
1508.13740	0.71840
1506.20884	0.71353
1504.28027	0.70485
1502.35171	0.69987
1500.42314	0.69721
1498.49458	0.69532
1496.56602	0.69225
1494.63745	0.68795
1492.70889	0.68510
1490.78032	0.68436
1488.85176	0.68307
1486.92319	0.67878
1484.99463	0.67408
1483.06606	0.67081
1481.13750	0.66841
1479.20894	0.66617
1477.28037	0.66451
1475.35181	0.66377
1473.42324	0.66292
1471.49468	0.65909
1469.56611	0.65364
1467.63755	0.64997
1465.70898	0.64786
1463.78042	0.64550
1461.85186	0.64305
1459.92329	0.64235
1457.99473	0.64295
1456.06616	0.64049
1454.13760	0.63547
1452.20903	0.63197
1450.28047	0.62957
1448.35190	0.62763
1446.42334	0.62536
1444.49478	0.62291
1442.56621	0.62099
1440.63765	0.61969
1438.70908	0.61921
1436.78052	0.61908
1434.85195	0.61758
1432.92339	0.61538
1430.99482	0.61385
1429.06626	0.61239
1427.13770	0.61064
1425.20913	0.60930
1423.28057	0.60820
1421.35200	0.60720
1419.42344	0.60669
1417.49487	0.60526
1415.56631	0.60225
1413.63774	0.59951
1411.70918	0.59758
1409.78062	0.59598
1407.85205	0.59450
1405.92349	0.59341
1403.99492	0.59226
1402.06636	0.59076
1400.13779	0.58976
1398.20923	0.58919
1396.28066	0.58825
1394.35210	0.58639
1392.42354	0.58386
1390.49497	0.58199
1388.56641	0.58117
1386.63784	0.58026
1384.70928	0.57845
1382.78071	0.57684
1380.85215	0.57598
1378.92358	0.57550
1376.99502	0.57517
1375.06646	0.57499
1373.13789	0.57412
1371.20933	0.57247
1369.28076	0.57117
1367.35220	0.57018
1365.42363	0.56939
1363.49507	0.56919
1361.56650	0.56871
1359.63794	0.56715
1357.70937	0.56559
1355.78081	0.56452
1353.85225	0.56358
1351.92368	0.56262
1349.99512	0.56171
1348.06655	0.56078
1346.13799	0.55974
1344.20942	0.55875
1342.28086	0.55825
1340.35229	0.55836
1338.42373	0.55797
1336.49517	0.55635
1334.56660	0.55449
1332.63804	0.55297
1330.70947	0.55175
1328.78091	0.55080
1326.85234	0.55001
1324.92378	0.54935
1322.99521	0.54887
1321.06665	0.54847
1319.13809	0.54788
1317.20952	0.54691
1315.28096	0.54579
1313.35239	0.54479
1311.42383	0.54385
1309.49526	0.54292
1307.56670	0.54198
1305.63813	0.54103
1303.70957	0.54009
1301.78101	0.53926
1299.85244	0.53850
1297.92388	0.53769
1295.99531	0.53681
1294.06675	0.53598
1292.13818	0.53520
1290.20962	0.53451
1288.28105	0.53399
1286.35249	0.53361
1284.42393	0.53322
1282.49536	0.53277
1280.56680	0.53223
1278.63823	0.53169
1276.70967	0.53124
1274.78110	0.53075
1272.85254	0.53014
1270.92397	0.52947
1268.99541	0.52892
1267.06685	0.52858
1265.13828	0.52829
1263.20972	0.52794
1261.28115	0.52779
1259.35259	0.52775
1257.42402	0.52750
1255.49546	0.52714
1253.56689	0.52684
1251.63833	0.52660
1249.70977	0.52637
1247.78120	0.52602
1245.85264	0.52561
1243.92407	0.52535
1241.99551	0.52521
1240.06694	0.52502
1238.13838	0.52461
1236.20981	0.52388
1234.28125	0.52306
1232.35269	0.52239
1230.42412	0.52183
1228.49556	0.52135
1226.56699	0.52092
1224.63843	0.52036
1222.70986	0.51957
1220.78130	0.51871
1218.85273	0.51798
1216.92417	0.51738
1214.99561	0.51683
1213.06704	0.51633
1211.13848	0.51587
1209.20991	0.51540
1207.28135	0.51490
1205.35278	0.51437
1203.42422	0.51380
1201.49565	0.51319
1199.56709	0.51252
1197.63853	0.51184
1195.70996	0.51128
1193.78140	0.51092
1191.85283	0.51051
1189.92427	0.50992
1187.99570	0.50940
1186.06714	0.50896
1184.13857	0.50860
1182.21001	0.50851
1180.28145	0.50870
1178.35288	0.50899
1176.42432	0.50934
1174.49575	0.50975
1172.56719	0.51028
1170.63862	0.51100
1168.71006	0.51172
1166.78149	0.51218
1164.85293	0.51250
1162.92437	0.51286
1160.99580	0.51315
1159.06724	0.51315
1157.13867	0.51278
1155.21011	0.51198
1153.28154	0.51073
1151.35298	0.50916
1149.42441	0.50736
1147.49585	0.50524
1145.56729	0.50285
1143.63872	0.50030
1141.71016	0.49773
1139.78159	0.49530
1137.85303	0.49318
1135.92446	0.49136
1133.99590	0.48957
1132.06733	0.48773
1130.13877	0.48610
1128.21021	0.48484
1126.28164	0.48370
1124.35308	0.48251
1122.42451	0.48156
1120.49595	0.48113
1118.56738	0.48093
1116.63882	0.48087
1114.71025	0.48124
1112.78169	0.48181
1110.85312	0.48233
1108.92456	0.48309
1106.99600	0.48415
1105.06743	0.48526
1103.13887	0.48636
1101.21030	0.48768
1099.28174	0.48952
1097.35317	0.49195
1095.42461	0.49499
1093.49604	0.49873
1091.56748	0.50309
1089.63892	0.50824
1087.71035	0.51429
1085.78179	0.52097
1083.85322	0.52803
1081.92466	0.53494
1079.99609	0.54069
1078.06753	0.54427
1076.13896	0.54517
1074.21040	0.54336
1072.28184	0.53911
1070.35327	0.53320
1068.42471	0.52684
1066.49614	0.52071
1064.56758	0.51476
1062.63901	0.50899
1060.71045	0.50390
1058.78188	0.49975
1056.85332	0.49620
1054.92476	0.49285
1052.99619	0.48977
1051.06763	0.48736
1049.13906	0.48560
1047.21050	0.48416
1045.28193	0.48317
1043.35337	0.48268
1041.42480	0.48235
1039.49624	0.48206
1037.56768	0.48184
1035.63911	0.48177
1033.71055	0.48191
1031.78198	0.48201
1029.85342	0.48183
1027.92485	0.48142
1025.99629	0.48103
1024.06772	0.48092
1022.13916	0.48123
1020.21060	0.48173
1018.28203	0.48214
1016.35347	0.48262
1014.42490	0.48328
1012.49634	0.48392
1010.56777	0.48476
1008.63921	0.48602
1006.71064	0.48740
1004.78208	0.48895
1002.85352	0.49105
1000.92495	0.49366
998.99639	0.49675
997.06782	0.50046
995.13926	0.50451
993.21069	0.50838
991.28213	0.51169
989.35356	0.51414
987.42500	0.51558
985.49644	0.51623
983.56787	0.51671
981.63931	0.51755
979.71074	0.51888
977.78218	0.52067
975.85361	0.52287
973.92505	0.52555
971.99648	0.52875
970.06792	0.53220
968.13936	0.53599
966.21079	0.54038
964.28223	0.54506
962.35366	0.54968
960.42510	0.55447
958.49653	0.55978
956.56797	0.56559
954.63940	0.57164
952.71084	0.57785
950.78228	0.58421
948.85371	0.59050
946.92515	0.59677
944.99658	0.60303
943.06802	0.60900
941.13945	0.61462
939.21089	0.62016
937.28232	0.62592
935.35376	0.63162
933.42520	0.63710
931.49663	0.64271
929.56807	0.64854
927.63950	0.65452
925.71094	0.66067
923.78237	0.66685
921.85381	0.67319
919.92524	0.68010
917.99668	0.68727
916.06812	0.69444
914.13955	0.70200
912.21099	0.70993
910.28242	0.71753
908.35386	0.72532
906.42529	0.73481
904.49673	0.74482
902.56816	0.75299
900.63960	0.76030
898.71104	0.76920
896.78247	0.78005
894.85391	0.79089
892.92534	0.80115
890.99678	0.81172
889.06821	0.82184
887.13965	0.83205
885.21108	0.84342
883.28252	0.85430
881.35396	0.86465
879.42539	0.87616
877.49683	0.88790
875.56826	0.89883
873.63970	0.90989
871.71113	0.92190
869.78257	0.93430
867.85400	0.94590
865.92544	0.95640
863.99687	0.96641
862.06831	0.97693
860.13975	0.98888
858.21118	1.00160
856.28262	1.01328
854.35405	1.02405
852.42549	1.03495
850.49692	1.04669
848.56836	1.05999
846.63979	1.07283
844.71123	1.08327
842.78267	1.09400
840.85410	1.10675
838.92554	1.11992
836.99697	1.13298
835.06841	1.14423
833.13984	1.15227
831.21128	1.16110
829.28271	1.17334
827.35415	1.18617
825.42559	1.19726
823.49702	1.20769
821.56846	1.21761
819.63989	1.22933
817.71133	1.24331
815.78276	1.24968
813.85420	1.24867
811.92563	1.25483
809.99707	1.26960
808.06851	1.29014
806.13994	1.32182
804.21138	1.34834
802.28281	1.34786
800.35425	1.33944
798.42568	1.34095
796.49712	1.33217
794.56855	1.31613
792.63999	1.32524
790.71143	1.35432
788.78286	1.38254
786.85430	1.40278
784.92573	1.43693
782.99717	1.51393
781.06860	1.53908
779.14004	1.42021
777.21147	1.32818
775.28291	1.34249
773.35435	1.41417
771.42578	1.47386
769.49722	1.50385
767.56865	1.54239
765.64009	1.66088
763.71152	1.77727
761.78296	1.60543
759.85439	1.52661
757.92583	1.93866
755.99727	4.53598
754.06870	4.52441
752.14014	4.51284
750.21157	1.50720
748.28301	1.14952
746.35444	1.04198
744.42588	1.05923
742.49731	1.15932
740.56875	1.23343
738.64019	1.00986
736.71162	0.79678
734.78306	0.72895
732.85449	0.75375
730.92593	0.76153
728.99736	0.72734
727.06880	0.68674
725.14023	0.58296
723.21167	0.44659
721.28311	0.34290
719.35454	0.27973
717.42598	0.23982
715.49741	0.18129
713.56885	0.14790
711.64028	0.13318
709.71172	-0.11465
707.78315	-0.57464
705.85459	-0.59157
703.92603	-0.04886
701.99746	0.12671
700.06890	0.19418
698.14033	0.39104
696.21177	4.17727
694.28320	4.16570
692.35464	0.85541
690.42607	0.50843
688.49751	0.30778
686.56895	0.15271
684.64038	0.13570
682.71182	0.23860
680.78325	0.32944
678.85469	0.32011
676.92612	0.33089
674.99756	0.37053
673.06899	0.34883
671.14043	0.25369
669.21187	0.30148
667.28330	0.47240
665.35474	0.40395
663.42617	0.26961
661.49761	0.21737
659.56904	0.19590
657.64048	0.22776
655.71191	0.34105
653.78335	0.48587
651.85479	0.80360
649.92622	3.89956
647.99766	3.88799
646.06909	3.87641
644.14053	3.86484
642.21196	1.17767
640.28340	0.46443
638.35483	0.47453
636.42627	0.59260
634.49771	0.61191
632.56914	0.61803
630.64058	0.54348
628.71201	0.41634
626.78345	0.30967
624.85488	0.19868
622.92632	0.15669
620.99775	0.15752
619.06919	0.21487
617.14062	0.44383
615.21206	0.63685
613.28350	0.49798
611.35493	0.46122
609.42637	0.46809
607.49780	0.32576
605.56924	0.18193
603.64067	0.16836
601.71211	0.28788
599.78354	0.57076
597.85498	0.85707
595.92642	0.54182
593.99785	0.39697
592.06929	0.38894
590.14072	0.43076
588.21216	0.46861
586.28359	0.50603
584.35503	0.49083
582.42646	0.36612
580.49790	0.29853
578.56934	0.34785
576.64077	0.38219
574.71221	0.34725
572.78364	0.35345
570.85508	0.48527
568.92651	0.61845
566.99795	0.47016
565.06938	0.30762
563.14082	0.21663
561.21226	0.24983
559.28369	0.44725
557.35513	0.69929
555.42656	0.50576
553.49800	0.33224
551.56943	0.24515
549.64087	0.21481
547.71230	0.24422
545.78374	0.30884
543.85518	0.31639
541.92661	0.26792
539.99805	0.25897
538.06948	0.28239
536.14092	0.29241
534.21235	0.30029
532.28379	0.28950
530.35522	0.25410
528.42666	0.22552
526.49810	0.22538
524.56953	0.30110
522.64097	0.38236
520.71240	0.31260
518.78384	0.22653
516.85527	0.20944
514.92671	0.23387
512.99814	0.20675
511.06958	0.13076
509.14102	0.10483
507.21245	0.18708
505.28389	0.30967
503.35532	0.35782
501.42676	0.35569
499.49819	0.31919
