3997.91411	0.05900
3995.98555	0.06003
3994.05698	0.06091
3992.12842	0.06135
3990.19985	0.06185
3988.27129	0.06225
3986.34272	0.06219
3984.41416	0.06225
3982.48560	0.06267
3980.55703	0.06291
3978.62847	0.06291
3976.69990	0.06329
3974.77134	0.06373
3972.84277	0.06395
3970.91421	0.06438
3968.98564	0.06471
3967.05708	0.06462
3965.12852	0.06458
3963.19995	0.06472
3961.27139	0.06471
3959.34282	0.06455
3957.41426	0.06440
3955.48569	0.06427
3953.55713	0.06425
3951.62856	0.06454
3949.70000	0.06502
3947.77144	0.06501
3945.84287	0.06456
3943.91431	0.06448
3941.98574	0.06468
3940.05718	0.06474
3938.12861	0.06484
3936.20005	0.06486
3934.27148	0.06477
3932.34292	0.06503
3930.41436	0.06560
3928.48579	0.06587
3926.55723	0.06577
3924.62866	0.06571
3922.70010	0.06545
3920.77153	0.06500
3918.84297	0.06494
3916.91440	0.06515
3914.98584	0.06496
3913.05728	0.06443
3911.12871	0.06410
3909.20015	0.06392
3907.27158	0.06389
3905.34302	0.06432
3903.41445	0.06526
3901.48589	0.06618
3899.55732	0.06635
3897.62876	0.06583
3895.70020	0.06530
3893.77163	0.06502
3891.84307	0.06483
3889.91450	0.06452
3887.98594	0.06420
3886.05737	0.06461
3884.12881	0.06576
3882.20024	0.06636
3880.27168	0.06604
3878.34312	0.06518
3876.41455	0.06465
3874.48599	0.06506
3872.55742	0.06609
3870.62886	0.06730
3868.70029	0.06842
3866.77173	0.06867
3864.84316	0.06853
3862.91460	0.06863
3860.98604	0.06839
3859.05747	0.06792
3857.12891	0.06800
3855.20034	0.06908
3853.27178	0.07136
3851.34321	0.07291
3849.41465	0.07197
3847.48608	0.07100
3845.55752	0.07092
3843.62896	0.07183
3841.70039	0.07344
3839.77183	0.07501
3837.84326	0.07586
3835.91470	0.07563
3833.98613	0.07547
3832.05757	0.07602
3830.12900	0.07643
3828.20044	0.07659
3826.27187	0.07743
3824.34331	0.07858
3822.41475	0.07962
3820.48618	0.08165
3818.55762	0.08358
3816.62905	0.08412
3814.70049	0.08415
3812.77192	0.08375
3810.84336	0.08379
3808.91479	0.08473
3806.98623	0.08635
3805.05767	0.08798
3803.12910	0.08922
3801.20054	0.09097
3799.27197	0.09243
3797.34341	0.09279
3795.41484	0.09350
3793.48628	0.09438
3791.55771	0.09515
3789.62915	0.09628
3787.70059	0.09769
3785.77202	0.09950
3783.84346	0.10161
3781.91489	0.10333
3779.98633	0.10484
3778.05776	0.10634
3776.12920	0.10730
3774.20063	0.10828
3772.27207	0.10978
3770.34351	0.11198
3768.41494	0.11471
3766.48638	0.11660
3764.55781	0.11796
3762.62925	0.11958
3760.70068	0.12165
3758.77212	0.12452
3756.84355	0.12754
3754.91499	0.12980
3752.98643	0.13225
3751.05786	0.13653
3749.12930	0.14142
3747.20073	0.14340
3745.27217	0.14501
3743.34360	0.14894
3741.41504	0.15275
3739.48647	0.15509
3737.55791	0.15790
3735.62935	0.16270
3733.70078	0.16920
3731.77222	0.17448
3729.84365	0.17856
3727.91509	0.18266
3725.98652	0.18801
3724.05796	0.19500
3722.12939	0.20197
3720.20083	0.20858
3718.27227	0.21567
3716.34370	0.22323
3714.41514	0.23078
3712.48657	0.23972
3710.55801	0.25284
3708.62944	0.26741
3706.70088	0.27926
3704.77231	0.29060
3702.84375	0.30391
3700.91519	0.32102
3698.98662	0.33949
3697.05806	0.35686
3695.12949	0.37535
3693.20093	0.39498
3691.27236	0.41636
3689.34380	0.44468
3687.41523	0.48003
3685.48667	0.51063
3683.55811	0.53664
3681.62954	0.56437
3679.70098	0.59584
3677.77241	0.62919
3675.84385	0.66897
3673.91528	0.72375
3671.98672	0.76767
3670.05815	0.80593
3668.12959	0.85992
3666.20103	0.90871
3664.27246	0.94897
3662.34390	0.99256
3660.41533	1.03973
3658.48677	1.08586
3656.55820	1.13545
3654.62964	1.19211
3652.70107	1.23893
3650.77251	1.27795
3648.84395	1.33332
3646.91538	1.40409
3644.98682	1.45505
3643.05825	1.49385
3641.12969	1.53390
3639.20112	1.57804
3637.27256	1.62244
3635.34399	1.66560
3633.41543	1.70851
3631.48687	1.74840
3629.55830	1.78866
3627.62974	1.84333
3625.70117	1.89576
3623.77261	1.93041
3621.84404	1.96299
3619.91548	2.00113
3617.98691	2.04836
3616.05835	2.09319
3614.12979	2.12964
3612.20122	2.16780
3610.27266	2.20592
3608.34409	2.24469
3606.41553	2.28761
3604.48696	2.32845
3602.55840	2.36410
3600.62983	2.40123
3598.70127	2.44170
3596.77271	2.48183
3594.84414	2.52326
3592.91558	2.56622
3590.98701	2.60540
3589.05845	2.64101
3587.12988	2.68431
3585.20132	2.73313
3583.27275	2.77421
3581.34419	2.81114
3579.41562	2.85106
3577.48706	2.89510
3575.55850	2.93914
3573.62993	2.98197
3571.70137	3.02294
3569.77280	3.06182
3567.84424	3.10316
3565.91567	3.15603
3563.98711	3.20851
3562.05854	3.25039
3560.12998	3.29195
3558.20142	3.33675
3556.27285	3.38350
3554.34429	3.42996
3552.41572	3.47586
3550.48716	3.52100
3548.55859	3.56611
3546.63003	3.61287
3544.70146	3.66187
3542.77290	3.70784
3540.84434	3.75019
3538.91577	3.79407
3536.98721	3.84002
3535.05864	3.88974
3533.13008	3.94088
3531.20151	3.99018
3529.27295	4.03664
3527.34438	4.08222
3525.41582	4.12894
3523.48726	4.17621
3521.55869	4.22540
3519.63013	4.27348
3517.70156	4.32030
3515.77300	4.36841
3513.84443	4.41759
3511.91587	4.46613
3509.98730	4.51561
3508.05874	4.56817
3506.13018	4.61560
3504.20161	4.65406
3502.27305	4.69556
3500.34448	4.74730
3498.41592	4.80049
3496.48735	4.85081
3494.55879	4.90132
3492.63022	4.95212
3490.70166	5.00220
3488.77310	5.05068
3486.84453	5.09491
3484.91597	5.13731
3482.98740	5.18221
3481.05884	5.22899
3479.13027	5.27271
3477.20171	5.31358
3475.27314	5.36066
3473.34458	5.41488
3471.41602	5.46504
3469.48745	5.50462
3467.55889	5.54250
3465.63032	5.59473
3463.70176	5.65863
3461.77319	5.71468
3459.84463	5.76046
3457.91606	5.80398
3455.98750	5.85472
3454.05894	5.91505
3452.13037	5.97662
3450.20181	6.03637
3448.27324	6.09154
3446.34468	6.13467
3444.41611	6.16136
3442.48755	6.19941
3440.55898	6.26139
3438.63042	6.32010
3436.70186	6.36709
3434.77329	6.42384
3432.84473	6.48556
3430.91616	6.51519
3428.98760	6.53056
3427.05903	6.57514
3425.13047	6.63621
3423.20190	6.68600
3421.27334	6.73945
3419.34478	6.80205
3417.41621	6.86144
3415.48765	6.91005
3413.55908	6.94631
3411.63052	6.98961
3409.70195	7.03639
3407.77339	7.08002
3405.84482	7.12034
3403.91626	7.16343
3401.98770	7.20711
3400.05913	7.23642
3398.13057	7.27291
3396.20200	7.35288
3394.27344	7.41337
3392.34487	7.38717
3390.41631	7.37537
3388.48774	7.41583
3386.55918	7.45130
3384.63062	7.46818
3382.70205	7.50635
3380.77349	7.56226
3378.84492	7.59483
3376.91636	7.60199
3374.98779	7.60685
3373.05923	7.67073
3371.13066	7.72780
3369.20210	7.71789
3367.27354	7.73181
3365.34497	7.75988
3363.41641	7.73700
3361.48784	7.74706
3359.55928	7.85069
3357.63071	7.95692
3355.70215	7.97459
3353.77358	7.93782
3351.84502	7.95274
3349.91646	7.94571
3347.98789	7.87486
3346.05933	7.84753
3344.13076	7.87188
3342.20220	7.93327
3340.27363	8.03476
3338.34507	8.10325
3336.41650	8.08484
3334.48794	8.05832
3332.55937	7.98632
3330.63081	7.88895
3328.70225	7.87985
3326.77368	7.92865
3324.84512	7.98278
3322.91655	8.03810
3320.98799	8.06364
3319.05942	8.03144
3317.13086	7.97006
3315.20229	7.88564
3313.27373	7.84894
3311.34517	7.86454
3309.41660	7.84346
3307.48804	7.82807
3305.55947	7.93275
3303.63091	8.12693
3301.70234	8.16715
3299.77378	8.06035
3297.84521	8.01692
3295.91665	8.07118
3293.98809	8.12606
3292.05952	8.13456
3290.13096	8.13788
3288.20239	8.14651
3286.27383	8.17541
3284.34526	8.19940
3282.41670	8.20139
3280.48813	8.16588
3278.55957	8.07198
3276.63101	7.99399
3274.70244	8.07821
3272.77388	8.26199
3270.84531	8.26329
3268.91675	8.13663
3266.98818	8.11648
3265.05962	8.22903
3263.13105	8.27810
3261.20249	8.19337
3259.27393	8.12355
3257.34536	8.12998
3255.41680	8.18897
3253.48823	8.22296
3251.55967	8.17184
3249.63110	8.04396
3247.70254	7.91111
3245.77397	7.85893
3243.84541	7.92917
3241.91685	8.04204
3239.98828	8.05895
3238.05972	7.99629
3236.13115	7.96641
3234.20259	8.01131
3232.27402	8.04440
3230.34546	8.01390
3228.41689	7.98953
3226.48833	7.98279
3224.55977	7.96519
3222.63120	7.94467
3220.70264	7.94325
3218.77407	7.94002
3216.84551	7.91311
3214.91694	7.92016
3212.98838	7.92870
3211.05981	7.91935
3209.13125	7.96677
3207.20269	8.00979
3205.27412	7.96508
3203.34556	7.83092
3201.41699	7.70474
3199.48843	7.70705
3197.55986	7.77125
3195.63130	7.76938
3193.70273	7.69755
3191.77417	7.56040
3189.84561	7.40955
3187.91704	7.32823
3185.98848	7.31620
3184.05991	7.33502
3182.13135	7.34748
3180.20278	7.33280
3178.27422	7.27176
3176.34565	7.15985
3174.41709	7.06626
3172.48853	7.02977
3170.55996	6.99362
3168.63140	6.92668
3166.70283	6.85797
3164.77427	6.79906
3162.84570	6.75172
3160.91714	6.70978
3158.98857	6.65885
3157.06001	6.59086
3155.13145	6.51061
3153.20288	6.43710
3151.27432	6.37323
3149.34575	6.30869
3147.41719	6.25499
3145.48862	6.21439
3143.56006	6.15271
3141.63149	6.07056
3139.70293	6.00717
3137.77437	5.95266
3135.84580	5.87060
3133.91724	5.77215
3131.98867	5.67927
3130.06011	5.59681
3128.13154	5.53275
3126.20298	5.47660
3124.27441	5.41100
3122.34585	5.33805
3120.41729	5.26005
3118.48872	5.18293
3116.56016	5.11366
3114.63159	5.04716
3112.70303	4.98338
3110.77446	4.92367
3108.84590	4.86157
3106.91733	4.79157
3104.98877	4.71657
3103.06021	4.64540
3101.13164	4.58002
3099.20308	4.51807
3097.27451	4.45745
3095.34595	4.39362
3093.41738	4.32423
3091.48882	4.25362
3089.56025	4.18650
3087.63169	4.12309
3085.70312	4.06293
3083.77456	4.00461
3081.84600	3.94619
3079.91743	3.88720
3077.98887	3.82717
3076.06030	3.76589
3074.13174	3.70725
3072.20317	3.65216
3070.27461	3.59518
3068.34604	3.53637
3066.41748	3.47835
3064.48892	3.42108
3062.56035	3.36568
3060.63179	3.31215
3058.70322	3.25957
3056.77466	3.20772
3054.84609	3.15552
3052.91753	3.10277
3050.98896	3.05059
3049.06040	2.99908
3047.13184	2.94892
3045.20327	2.90070
3043.27471	2.85263
3041.34614	2.80391
3039.41758	2.75547
3037.48901	2.70778
3035.56045	2.66172
3033.63188	2.61769
3031.70332	2.57427
3029.77476	2.53055
3027.84619	2.48764
3025.91763	2.44626
3023.98906	2.40504
3022.06050	2.36305
3020.13193	2.32119
3018.20337	2.28017
3016.27480	2.23983
3014.34624	2.20049
3012.41768	2.16243
3010.48911	2.12507
3008.56055	2.08845
3006.63198	2.05261
3004.70342	2.01693
3002.77485	1.98165
3000.84629	1.94728
2998.91772	1.91334
2996.98916	1.87987
2995.06060	1.84764
2993.13203	1.81653
2991.20347	1.78552
2989.27490	1.75428
2987.34634	1.72395
2985.41777	1.69483
2983.48921	1.66569
2981.56064	1.63648
2979.63208	1.60829
2977.70352	1.58122
2975.77495	1.55449
2973.84639	1.52802
2971.91782	1.50193
2969.98926	1.47597
2968.06069	1.45024
2966.13213	1.42476
2964.20356	1.39953
2962.27500	1.37487
2960.34644	1.35066
2958.41787	1.32668
2956.48931	1.30316
2954.56074	1.27999
2952.63218	1.25664
2950.70361	1.23322
2948.77505	1.21053
2946.84648	1.18848
2944.91792	1.16668
2942.98936	1.14555
2941.06079	1.12512
2939.13223	1.10495
2937.20366	1.08505
2935.27510	1.06537
2933.34653	1.04598
2931.41797	1.02705
2929.48940	1.00799
2927.56084	0.98874
2925.63228	0.97004
2923.70371	0.95205
2921.77515	0.93438
2919.84658	0.91712
2917.91802	0.90055
2915.98945	0.88457
2914.06089	0.86912
2912.13232	0.85415
2910.20376	0.83955
2908.27520	0.82525
2906.34663	0.81131
2904.41807	0.79752
2902.48950	0.78368
2900.56094	0.77026
2898.63237	0.75765
2896.70381	0.74543
2894.77524	0.73318
2892.84668	0.72087
2890.91812	0.70864
2888.98955	0.69677
2887.06099	0.68541
2885.13242	0.67462
2883.20386	0.66436
2881.27529	0.65433
2879.34673	0.64432
2877.41816	0.63412
2875.48960	0.62376
2873.56104	0.61362
2871.63247	0.60331
2869.70391	0.59236
2867.77534	0.58142
2865.84678	0.57096
2863.91821	0.56037
2861.98965	0.54937
2860.06108	0.53869
2858.13252	0.52899
2856.20396	0.51999
2854.27539	0.51098
2852.34683	0.50183
2850.41826	0.49274
2848.48970	0.48369
2846.56113	0.47540
2844.63257	0.46854
2842.70400	0.46241
2840.77544	0.45651
2838.84687	0.45082
2836.91831	0.44504
2834.98975	0.43913
2833.06118	0.43339
2831.13262	0.42768
2829.20405	0.42185
2827.27549	0.41604
2825.34692	0.41019
2823.41836	0.40418
2821.48979	0.39812
2819.56123	0.39223
2817.63267	0.38665
2815.70410	0.38115
2813.77554	0.37550
2811.84697	0.36989
2809.91841	0.36451
2807.98984	0.35923
2806.06128	0.35391
2804.13271	0.34865
2802.20415	0.34366
2800.27559	0.33889
2798.34702	0.33413
2796.41846	0.32932
2794.48989	0.32454
2792.56133	0.31994
2790.63276	0.31549
2788.70420	0.31106
2786.77563	0.30667
2784.84707	0.30248
2782.91851	0.29846
2780.98994	0.29438
2779.06138	0.29029
2777.13281	0.28645
2775.20425	0.28275
2773.27568	0.27901
2771.34712	0.27533
2769.41855	0.27180
2767.48999	0.26836
2765.56143	0.26502
2763.63286	0.26163
2761.70430	0.25816
2759.77573	0.25480
2757.84717	0.25155
2755.91860	0.24842
2753.99004	0.24537
2752.06147	0.24241
2750.13291	0.23967
2748.20435	0.23696
2746.27578	0.23413
2744.34722	0.23136
2742.41865	0.22868
2740.49009	0.22605
2738.56152	0.22356
2736.63296	0.22116
2734.70439	0.21872
2732.77583	0.21632
2730.84727	0.21404
2728.91870	0.21178
2726.99014	0.20951
2725.06157	0.20731
2723.13301	0.20507
2721.20444	0.20279
2719.27588	0.20071
2717.34731	0.19887
2715.41875	0.19712
2713.49019	0.19539
2711.56162	0.19365
2709.63306	0.19190
2707.70449	0.19017
2705.77593	0.18839
2703.84736	0.18662
2701.91880	0.18505
2699.99023	0.18358
2698.06167	0.18208
2696.13311	0.18069
2694.20454	0.17944
2692.27598	0.17805
2690.34741	0.17661
2688.41885	0.17541
2686.49028	0.17426
2684.56172	0.17301
2682.63315	0.17174
2680.70459	0.17046
2678.77603	0.16917
2676.84746	0.16802
2674.91890	0.16714
2672.99033	0.16630
2671.06177	0.16532
2669.13320	0.16433
2667.20464	0.16334
2665.27607	0.16224
2663.34751	0.16111
2661.41895	0.16020
2659.49038	0.15949
2657.56182	0.15884
2655.63325	0.15812
2653.70469	0.15739
2651.77612	0.15672
2649.84756	0.15598
2647.91899	0.15525
2645.99043	0.15464
2644.06187	0.15414
2642.13330	0.15375
2640.20474	0.15334
2638.27617	0.15283
2636.34761	0.15225
2634.41904	0.15168
2632.49048	0.15123
2630.56191	0.15086
2628.63335	0.15058
2626.70479	0.15036
2624.77622	0.15001
2622.84766	0.14962
2620.91909	0.14941
2618.99053	0.14930
2617.06196	0.14917
2615.13340	0.14898
2613.20483	0.14875
2611.27627	0.14858
2609.34771	0.14850
2607.41914	0.14845
2605.49058	0.14837
2603.56201	0.14834
2601.63345	0.14842
2599.70488	0.14842
2597.77632	0.14821
2595.84775	0.14803
2593.91919	0.14811
2591.99062	0.14839
2590.06206	0.14875
2588.13350	0.14908
2586.20493	0.14922
2584.27637	0.14930
2582.34780	0.14948
2580.41924	0.14975
2578.49067	0.15009
2576.56211	0.15047
2574.63354	0.15074
2572.70498	0.15089
2570.77642	0.15107
2568.84785	0.15142
2566.91929	0.15188
2564.99072	0.15235
2563.06216	0.15280
2561.13359	0.15326
2559.20503	0.15379
2557.27646	0.15431
2555.34790	0.15480
2553.41934	0.15535
2551.49077	0.15583
2549.56221	0.15622
2547.63364	0.15666
2545.70508	0.15727
2543.77651	0.15798
2541.84795	0.15866
2539.91938	0.15929
2537.99082	0.15995
2536.06226	0.16062
2534.13369	0.16120
2532.20513	0.16172
2530.27656	0.16237
2528.34800	0.16307
2526.41943	0.16368
2524.49087	0.16438
2522.56230	0.16524
2520.63374	0.16618
2518.70518	0.16713
2516.77661	0.16801
2514.84805	0.16879
2512.91948	0.16959
2510.99092	0.17038
2509.06235	0.17105
2507.13379	0.17172
2505.20522	0.17262
2503.27666	0.17360
2501.34810	0.17442
2499.41953	0.17526
2497.49097	0.17629
2495.56240	0.17728
2493.63384	0.17804
2491.70527	0.17866
2489.77671	0.17932
2487.84814	0.18007
2485.91958	0.18092
2483.99102	0.18189
2482.06245	0.18294
2480.13389	0.18388
2478.20532	0.18476
2476.27676	0.18565
2474.34819	0.18646
2472.41963	0.18730
2470.49106	0.18827
2468.56250	0.18931
2466.63394	0.19024
2464.70537	0.19107
2462.77681	0.19190
2460.84824	0.19284
2458.91968	0.19388
2456.99111	0.19497
2455.06255	0.19596
2453.13398	0.19690
2451.20542	0.19791
2449.27686	0.19895
2447.34829	0.19991
2445.41973	0.20074
2443.49116	0.20162
2441.56260	0.20268
2439.63403	0.20382
2437.70547	0.20488
2435.77690	0.20589
2433.84834	0.20688
2431.91978	0.20789
2429.99121	0.20898
2428.06265	0.21017
2426.13408	0.21136
2424.20552	0.21248
2422.27695	0.21348
2420.34839	0.21444
2418.41982	0.21552
2416.49126	0.21672
2414.56270	0.21792
2412.63413	0.21909
2410.70557	0.22025
2408.77700	0.22147
2406.84844	0.22270
2404.91987	0.22385
2402.99131	0.22496
2401.06274	0.22617
2399.13418	0.22749
2397.20562	0.22879
2395.27705	0.23003
2393.34849	0.23123
2391.41992	0.23247
2389.49136	0.23373
2387.56279	0.23498
2385.63423	0.23633
2383.70566	0.23787
2381.77710	0.23965
2379.84854	0.24164
2377.91997	0.24364
2375.99141	0.24566
2374.06284	0.24799
2372.13428	0.25067
2370.20571	0.25371
2368.27715	0.25697
2366.34858	0.26023
2364.42002	0.26344
2362.49146	0.26590
2360.56289	0.26676
2358.63433	0.26723
2356.70576	0.26850
2354.77720	0.26995
2352.84863	0.27110
2350.92007	0.27132
2348.99150	0.27121
2347.06294	0.27194
2345.13437	0.27419
2343.20581	0.27747
2341.27725	0.28035
2339.34868	0.28197
2337.42012	0.28273
2335.49155	0.28415
2333.56299	0.28607
2331.63442	0.28753
2329.70586	0.28882
2327.77729	0.29017
2325.84873	0.29132
2323.92017	0.29236
2321.99160	0.29322
2320.06304	0.29400
2318.13447	0.29497
2316.20591	0.29606
2314.27734	0.29734
2312.34878	0.29885
2310.42021	0.30041
2308.49165	0.30199
2306.56309	0.30368
2304.63452	0.30533
2302.70596	0.30679
2300.77739	0.30822
2298.84883	0.30977
2296.92026	0.31139
2294.99170	0.31302
2293.06313	0.31480
2291.13457	0.31669
2289.20601	0.31857
2287.27744	0.32048
2285.34888	0.32243
2283.42031	0.32437
2281.49175	0.32630
2279.56318	0.32824
2277.63462	0.33024
2275.70605	0.33232
2273.77749	0.33450
2271.84893	0.33669
2269.92036	0.33879
2267.99180	0.34078
2266.06323	0.34271
2264.13467	0.34476
2262.20610	0.34705
2260.27754	0.34935
2258.34897	0.35154
2256.42041	0.35372
2254.49185	0.35591
2252.56328	0.35802
2250.63472	0.36009
2248.70615	0.36224
2246.77759	0.36446
2244.84902	0.36665
2242.92046	0.36885
2240.99189	0.37108
2239.06333	0.37327
2237.13477	0.37544
2235.20620	0.37769
2233.27764	0.38006
2231.34907	0.38247
2229.42051	0.38478
2227.49194	0.38698
2225.56338	0.38918
2223.63481	0.39139
2221.70625	0.39357
2219.77769	0.39570
2217.84912	0.39784
2215.92056	0.40000
2213.99199	0.40221
2212.06343	0.40443
2210.13486	0.40653
2208.20630	0.40864
2206.27773	0.41080
2204.34917	0.41289
2202.42061	0.41500
2200.49204	0.41726
2198.56348	0.41944
2196.63491	0.42138
2194.70635	0.42327
2192.77778	0.42517
2190.84922	0.42700
2188.92065	0.42880
2186.99209	0.43072
2185.06353	0.43260
2183.13496	0.43429
2181.20640	0.43600
2179.27783	0.43781
2177.34927	0.43954
2175.42070	0.44116
2173.49214	0.44274
2171.56357	0.44421
2169.63501	0.44553
2167.70645	0.44683
2165.77788	0.44805
2163.84932	0.44923
2161.92075	0.45043
2159.99219	0.45151
2158.06362	0.45239
2156.13506	0.45330
2154.20649	0.45432
2152.27793	0.45530
2150.34937	0.45603
2148.42080	0.45654
2146.49224	0.45706
2144.56367	0.45771
2142.63511	0.45832
2140.70654	0.45871
2138.77798	0.45893
2136.84941	0.45907
2134.92085	0.45920
2132.99229	0.45930
2131.06372	0.45937
2129.13516	0.45939
2127.20659	0.45922
2125.27803	0.45887
2123.34946	0.45846
2121.42090	0.45800
2119.49233	0.45744
2117.56377	0.45681
2115.63521	0.45609
2113.70664	0.45526
2111.77808	0.45439
2109.84951	0.45350
2107.92095	0.45257
2105.99238	0.45155
2104.06382	0.45036
2102.13525	0.44903
2100.20669	0.44774
2098.27812	0.44646
2096.34956	0.44509
2094.42100	0.44359
2092.49243	0.44198
2090.56387	0.44026
2088.63530	0.43844
2086.70674	0.43660
2084.77817	0.43475
2082.84961	0.43292
2080.92104	0.43108
2078.99248	0.42910
2077.06392	0.42699
2075.13535	0.42484
2073.20679	0.42265
2071.27822	0.42045
2069.34966	0.41822
2067.42109	0.41591
2065.49253	0.41354
2063.56396	0.41113
2061.63540	0.40875
2059.70684	0.40633
2057.77827	0.40382
2055.84971	0.40130
2053.92114	0.39878
2051.99258	0.39620
2050.06401	0.39348
2048.13545	0.39079
2046.20688	0.38817
2044.27832	0.38550
2042.34976	0.38273
2040.42119	0.37996
2038.49263	0.37721
2036.56406	0.37443
2034.63550	0.37163
2032.70693	0.36886
2030.77837	0.36616
2028.84980	0.36341
2026.92124	0.36057
2024.99268	0.35779
2023.06411	0.35506
2021.13555	0.35226
2019.20698	0.34950
2017.27842	0.34683
2015.34985	0.34411
2013.42129	0.34133
2011.49272	0.33857
2009.56416	0.33584
2007.63560	0.33305
2005.70703	0.33023
2003.77847	0.32749
2001.84990	0.32484
1999.92134	0.32219
1997.99277	0.31952
1996.06421	0.31692
1994.13564	0.31443
1992.20708	0.31203
1990.27852	0.30959
1988.34995	0.30715
1986.42139	0.30469
1984.49282	0.30220
1982.56426	0.29974
1980.63569	0.29731
1978.70713	0.29493
1976.77856	0.29264
1974.85000	0.29041
1972.92144	0.28821
1970.99287	0.28606
1969.06431	0.28406
1967.13574	0.28209
1965.20718	0.27995
1963.27861	0.27780
1961.35005	0.27586
1959.42148	0.27403
1957.49292	0.27215
1955.56436	0.27024
1953.63579	0.26842
1951.70723	0.26666
1949.77866	0.26498
1947.85010	0.26338
1945.92153	0.26187
1943.99297	0.26044
1942.06440	0.25901
1940.13584	0.25749
1938.20728	0.25597
1936.27871	0.25452
1934.35015	0.25314
1932.42158	0.25190
1930.49302	0.25072
1928.56445	0.24954
1926.63589	0.24834
1924.70732	0.24726
1922.77876	0.24638
1920.85020	0.24550
1918.92163	0.24456
1916.99307	0.24361
1915.06450	0.24260
1913.13594	0.24165
1911.20737	0.24098
1909.27881	0.24040
1907.35024	0.23967
1905.42168	0.23886
1903.49312	0.23822
1901.56455	0.23776
1899.63599	0.23733
1897.70742	0.23685
1895.77886	0.23642
1893.85029	0.23607
1891.92173	0.23571
1889.99316	0.23553
1888.06460	0.23537
1886.13604	0.23507
1884.20747	0.23471
1882.27891	0.23434
1880.35034	0.23412
1878.42178	0.23409
1876.49321	0.23412
1874.56465	0.23412
1872.63608	0.23422
1870.70752	0.23450
1868.77896	0.23504
1866.85039	0.23536
1864.92183	0.23526
1862.99326	0.23522
1861.06470	0.23541
1859.13613	0.23581
1857.20757	0.23622
1855.27900	0.23659
1853.35044	0.23693
1851.42187	0.23738
1849.49331	0.23796
1847.56475	0.23867
1845.63618	0.23953
1843.70762	0.24058
1841.77905	0.24139
1839.85049	0.24178
1837.92192	0.24249
1835.99336	0.24351
1834.06479	0.24448
1832.13623	0.24542
1830.20767	0.24686
1828.27910	0.24847
1826.35054	0.24956
1824.42197	0.25075
1822.49341	0.25197
1820.56484	0.25313
1818.63628	0.25448
1816.70771	0.25613
1814.77915	0.25775
1812.85059	0.25947
1810.92202	0.26155
1808.99346	0.26367
1807.06489	0.26565
1805.13633	0.26758
1803.20776	0.26974
1801.27920	0.27225
1799.35063	0.27516
1797.42207	0.27786
1795.49351	0.28033
1793.56494	0.28310
1791.63638	0.28674
1789.70781	0.29022
1787.77925	0.29273
1785.85068	0.29571
1783.92212	0.29940
1781.99355	0.30340
1780.06499	0.30765
1778.13643	0.31197
1776.20786	0.31596
1774.27930	0.32023
1772.35073	0.32617
1770.42217	0.33280
1768.49360	0.33819
1766.56504	0.34325
1764.63647	0.34847
1762.70791	0.35437
1760.77935	0.36196
1758.85078	0.36902
1756.92222	0.37615
1754.99365	0.38416
1753.06509	0.39139
1751.13652	0.39967
1749.20796	0.41015
1747.27939	0.42075
1745.35083	0.43000
1743.42227	0.43944
1741.49370	0.44982
1739.56514	0.46224
1737.63657	0.47456
1735.70801	0.48497
1733.77944	0.50098
1731.85088	0.52084
1729.92231	0.53651
1727.99375	0.55230
1726.06519	0.56915
1724.13662	0.58764
1722.20806	0.60760
1720.27949	0.62567
1718.35093	0.64683
1716.42236	0.67960
1714.49380	0.71100
1712.56523	0.73565
1710.63667	0.75939
1708.70811	0.78479
1706.77954	0.81366
1704.85098	0.84858
1702.92241	0.87950
1700.99385	0.90912
1699.06528	0.95463
1697.13672	0.99778
1695.20815	1.04170
1693.27959	1.08331
1691.35103	1.11615
1689.42246	1.15435
1687.49390	1.19466
1685.56533	1.23279
1683.63677	1.29406
1681.70820	1.35963
1679.77964	1.39985
1677.85107	1.43759
1675.92251	1.48086
1673.99395	1.53523
1672.06538	1.58395
1670.13682	1.63198
1668.20825	1.69594
1666.27969	1.74634
1664.35112	1.78739
1662.42256	1.83994
1660.49399	1.90211
1658.56543	1.94920
1656.63687	1.98553
1654.70830	2.01866
1652.77974	2.07508
1650.85117	2.13305
1648.92261	2.15464
1646.99404	2.18262
1645.06548	2.21249
1643.13691	2.23301
1641.20835	2.24495
1639.27979	2.25484
1637.35122	2.26007
1635.42266	2.25829
1633.49409	2.25295
1631.56553	2.24469
1629.63696	2.23175
1627.70840	2.20446
1625.77983	2.17220
1623.85127	2.13194
1621.92271	2.08243
1619.99414	2.03906
1618.06558	1.99759
1616.13701	1.93622
1614.20845	1.87222
1612.27988	1.82498
1610.35132	1.77623
1608.42275	1.72225
1606.49419	1.66862
1604.56562	1.61968
1602.63706	1.57180
1600.70850	1.52483
1598.77993	1.48245
1596.85137	1.44289
1594.92280	1.40373
1592.99424	1.36498
1591.06567	1.32956
1589.13711	1.29697
1587.20854	1.26673
1585.27998	1.23829
1583.35142	1.21145
1581.42285	1.18708
1579.49429	1.16649
1577.56572	1.14796
1575.63716	1.12480
1573.70859	1.10447
1571.78003	1.09135
1569.85146	1.07763
1567.92290	1.06247
1565.99434	1.05091
1564.06577	1.04154
1562.13721	1.03420
1560.20864	1.02948
1558.28008	1.02307
1556.35151	1.01626
1554.42295	1.01171
1552.49438	1.00747
1550.56582	1.00241
1548.63726	0.99566
1546.70869	0.98808
1544.78013	0.97920
1542.85156	0.96812
1540.92300	0.95268
1538.99443	0.92942
1537.06587	0.91334
1535.13730	0.90287
1533.20874	0.88859
1531.28018	0.87281
1529.35161	0.86135
1527.42305	0.85073
1525.49448	0.83969
1523.56592	0.83002
1521.63735	0.82038
1519.70879	0.81064
1517.78022	0.80289
1515.85166	0.79400
1513.92310	0.78470
1511.99453	0.77679
1510.06597	0.76975
1508.13740	0.76285
1506.20884	0.75141
1504.28027	0.74171
1502.35171	0.73649
1500.42314	0.73200
1498.49458	0.72716
1496.56602	0.72107
1494.63745	0.71486
1492.70889	0.71015
1490.78032	0.70619
1488.85176	0.70189
1486.92319	0.69781
1484.99463	0.69434
1483.06606	0.69142
1481.13750	0.68887
1479.20894	0.68676
1477.28037	0.68537
1475.35181	0.68465
1473.42324	0.68408
1471.49468	0.68220
1469.56611	0.67942
1467.63755	0.67706
1465.70898	0.67510
1463.78042	0.67319
1461.85186	0.67161
1459.92329	0.67073
1457.99473	0.67025
1456.06616	0.66887
1454.13760	0.66646
1452.20903	0.66419
1450.28047	0.66188
1448.35190	0.65937
1446.42334	0.65673
1444.49478	0.65439
1442.56621	0.65231
1440.63765	0.65024
1438.70908	0.64806
1436.78052	0.64551
1434.85195	0.64278
1432.92339	0.64056
1430.99482	0.63897
1429.06626	0.63797
1427.13770	0.63735
1425.20913	0.63699
1423.28057	0.63690
1421.35200	0.63694
1419.42344	0.63699
1417.49487	0.63634
1415.56631	0.63481
1413.63774	0.63350
1411.70918	0.63272
1409.78062	0.63234
1407.85205	0.63226
1405.92349	0.63250
1403.99492	0.63268
1402.06636	0.63219
1400.13779	0.63112
1398.20923	0.62950
1396.28066	0.62734
1394.35210	0.62467
1392.42354	0.62165
1390.49497	0.61868
1388.56641	0.61571
1386.63784	0.61235
1384.70928	0.60881
1382.78071	0.60557
1380.85215	0.60254
1378.92358	0.59992
1376.99502	0.59806
1375.06646	0.59689
1373.13789	0.59590
1371.20933	0.59495
1369.28076	0.59414
1367.35220	0.59318
1365.42363	0.59198
1363.49507	0.59071
1361.56650	0.58936
1359.63794	0.58790
1357.70937	0.58657
1355.78081	0.58548
1353.85225	0.58456
1351.92368	0.58363
1349.99512	0.58271
1348.06655	0.58186
1346.13799	0.58098
1344.20942	0.58009
1342.28086	0.57931
1340.35229	0.57868
1338.42373	0.57791
1336.49517	0.57700
1334.56660	0.57616
1332.63804	0.57549
1330.70947	0.57514
1328.78091	0.57507
1326.85234	0.57505
1324.92378	0.57509
1322.99521	0.57530
1321.06665	0.57553
1319.13809	0.57554
1317.20952	0.57529
1315.28096	0.57496
1313.35239	0.57456
1311.42383	0.57383
1309.49526	0.57282
1307.56670	0.57186
1305.63813	0.57111
1303.70957	0.57042
1301.78101	0.56952
1299.85244	0.56835
1297.92388	0.56708
1295.99531	0.56589
1294.06675	0.56483
1292.13818	0.56376
1290.20962	0.56266
1288.28105	0.56174
1286.35249	0.56095
1284.42393	0.56013
1282.49536	0.55922
1280.56680	0.55825
1278.63823	0.55718
1276.70967	0.55608
1274.78110	0.55512
1272.85254	0.55433
1270.92397	0.55372
1268.99541	0.55328
1267.06685	0.55284
1265.13828	0.55224
1263.20972	0.55162
1261.28115	0.55100
1259.35259	0.55044
1257.42402	0.55010
1255.49546	0.54986
1253.56689	0.54961
1251.63833	0.54949
1249.70977	0.54950
1247.78120	0.54950
1245.85264	0.54946
1243.92407	0.54923
1241.99551	0.54861
1240.06694	0.54763
1238.13838	0.54645
1236.20981	0.54506
1234.28125	0.54351
1232.35269	0.54201
1230.42412	0.54062
1228.49556	0.53918
1226.56699	0.53766
1224.63843	0.53621
1222.70986	0.53497
1220.78130	0.53387
1218.85273	0.53281
1216.92417	0.53167
1214.99561	0.53063
1213.06704	0.52988
1211.13848	0.52930
1209.20991	0.52869
1207.28135	0.52796
1205.35278	0.52713
1203.42422	0.52631
1201.49565	0.52555
1199.56709	0.52485
1197.63853	0.52422
1195.70996	0.52358
1193.78140	0.52291
1191.85283	0.52225
1189.92427	0.52170
1187.99570	0.52141
1186.06714	0.52137
1184.13857	0.52138
1182.21001	0.52152
1180.28145	0.52202
1178.35288	0.52276
1176.42432	0.52367
1174.49575	0.52468
1172.56719	0.52557
1170.63862	0.52617
1168.71006	0.52655
1166.78149	0.52690
1164.85293	0.52724
1162.92437	0.52752
1160.99580	0.52772
1159.06724	0.52778
1157.13867	0.52742
1155.21011	0.52643
1153.28154	0.52498
1151.35298	0.52338
1149.42441	0.52142
1147.49585	0.51887
1145.56729	0.51612
1143.63872	0.51346
1141.71016	0.51093
1139.78159	0.50884
1137.85303	0.50724
1135.92446	0.50592
1133.99590	0.50491
1132.06733	0.50424
1130.13877	0.50373
1128.21021	0.50323
1126.28164	0.50274
1124.35308	0.50224
1122.42451	0.50173
1120.49595	0.50134
1118.56738	0.50119
1116.63882	0.50110
1114.71025	0.50123
1112.78169	0.50173
1110.85312	0.50238
1108.92456	0.50317
1106.99600	0.50409
1105.06743	0.50506
1103.13887	0.50634
1101.21030	0.50807
1099.28174	0.51009
1097.35317	0.51244
1095.42461	0.51523
1093.49604	0.51856
1091.56748	0.52287
1089.63892	0.52828
1087.71035	0.53453
1085.78179	0.54165
1083.85322	0.54927
1081.92466	0.55640
1079.99609	0.56218
1078.06753	0.56574
1076.13896	0.56630
1074.21040	0.56383
1072.28184	0.55905
1070.35327	0.55278
1068.42471	0.54597
1066.49614	0.53946
1064.56758	0.53350
1062.63901	0.52801
1060.71045	0.52299
1058.78188	0.51853
1056.85332	0.51447
1054.92476	0.51068
1052.99619	0.50732
1051.06763	0.50466
1049.13906	0.50287
1047.21050	0.50173
1045.28193	0.50097
1043.35337	0.50028
1041.42480	0.49957
1039.49624	0.49901
1037.56768	0.49876
1035.63911	0.49877
1033.71055	0.49861
1031.78198	0.49797
1029.85342	0.49705
1027.92485	0.49610
1025.99629	0.49530
1024.06772	0.49467
1022.13916	0.49435
1020.21060	0.49463
1018.28203	0.49517
1016.35347	0.49523
1014.42490	0.49491
1012.49634	0.49482
1010.56777	0.49514
1008.63921	0.49569
1006.71064	0.49656
1004.78208	0.49801
1002.85352	0.50008
1000.92495	0.50264
998.99639	0.50578
997.06782	0.50964
995.13926	0.51388
993.21069	0.51792
991.28213	0.52116
989.35356	0.52327
987.42500	0.52434
985.49644	0.52469
983.56787	0.52474
981.63931	0.52501
979.71074	0.52591
977.78218	0.52754
975.85361	0.52975
973.92505	0.53223
971.99648	0.53506
970.06792	0.53844
968.13936	0.54214
966.21079	0.54597
964.28223	0.55010
962.35366	0.55472
960.42510	0.55981
958.49653	0.56525
956.56797	0.57076
954.63940	0.57639
952.71084	0.58247
950.78228	0.58890
948.85371	0.59532
946.92515	0.60138
944.99658	0.60732
943.06802	0.61372
941.13945	0.62016
939.21089	0.62587
937.28232	0.63110
935.35376	0.63634
933.42520	0.64183
931.49663	0.64770
929.56807	0.65335
927.63950	0.65865
925.71094	0.66455
923.78237	0.67108
921.85381	0.67754
919.92524	0.68423
917.99668	0.69149
916.06812	0.69915
914.13955	0.70678
912.21099	0.71429
910.28242	0.72192
908.35386	0.72963
906.42529	0.73756
904.49673	0.74588
902.56816	0.75459
900.63960	0.76429
898.71104	0.77554
896.78247	0.78698
894.85391	0.79692
892.92534	0.80630
890.99678	0.81638
889.06821	0.82690
887.13965	0.83709
885.21108	0.84703
883.28252	0.85724
881.35396	0.86809
879.42539	0.88066
877.49683	0.89457
875.56826	0.90745
873.63970	0.91896
871.71113	0.93098
869.78257	0.94250
867.85400	0.95151
865.92544	0.96020
863.99687	0.97095
862.06831	0.98326
860.13975	0.99618
858.21118	1.00895
856.28262	1.02043
854.35405	1.03148
852.42549	1.04326
850.49692	1.05404
848.56836	1.06391
846.63979	1.07516
844.71123	1.08728
842.78267	1.09810
840.85410	1.10755
838.92554	1.11851
836.99697	1.13155
835.06841	1.14265
833.13984	1.15220
831.21128	1.16407
829.28271	1.18049
827.35415	1.19985
825.42559	1.21326
823.49702	1.21744
821.56846	1.21523
819.63989	1.21374
817.71133	1.22435
815.78276	1.24512
813.85420	1.26722
811.92563	1.29283
809.99707	1.31300
808.06851	1.31164
806.13994	1.30939
804.21138	1.31787
802.28281	1.32391
800.35425	1.33825
798.42568	1.36385
796.49712	1.36845
794.56855	1.35303
792.63999	1.34820
790.71143	1.35805
788.78286	1.36342
786.85430	1.33937
784.92573	1.31954
782.99717	1.34983
781.06860	1.41810
779.14004	1.43837
777.21147	1.36964
775.28291	1.32057
773.35435	1.35212
771.42578	1.41183
769.49722	1.36697
767.56865	1.27328
765.64009	1.24482
763.71152	1.27397
761.78296	1.30667
759.85439	1.32501
757.92583	1.32589
755.99727	1.34027
754.06870	1.37256
752.14014	1.31634
750.21157	1.28853
748.28301	1.38539
746.35444	1.46366
744.42588	1.47154
742.49731	1.69146
740.56875	1.81503
738.64019	1.29839
736.71162	1.00398
734.78306	0.80297
732.85449	0.68761
730.92593	0.66781
728.99736	0.72022
727.06880	0.75530
725.14023	0.65479
723.21167	0.49490
721.28311	0.32194
719.35454	0.30691
717.42598	0.49858
715.49741	0.46275
713.56885	0.40395
711.64028	0.50042
709.71172	0.55819
707.78315	0.44457
705.85459	0.39439
703.92603	0.45351
701.99746	0.51644
700.06890	0.61664
698.14033	0.83902
696.21177	0.92813
694.28320	0.96149
692.35464	4.15413
690.42607	4.14256
688.49751	4.13099
686.56895	0.91871
684.64038	0.41564
682.71182	0.24477
680.78325	0.25978
678.85469	0.56465
676.92612	4.06156
674.99756	1.02381
673.06899	0.61254
671.14043	0.56796
669.21187	0.50795
667.28330	0.40920
665.35474	0.37958
663.42617	0.38938
661.49761	0.39050
659.56904	0.45003
657.64048	0.57764
655.71191	0.54571
653.78335	0.43462
651.85479	0.35809
649.92622	0.33054
647.99766	0.39146
646.06909	0.50074
644.14053	0.57759
642.21196	0.65841
640.28340	0.56939
638.35483	0.32253
636.42627	0.20739
634.49771	0.25870
632.56914	0.44828
630.64058	0.60576
628.71201	0.47510
626.78345	0.37103
624.85488	0.44018
622.92632	0.72977
620.99775	0.75375
619.06919	0.42269
617.14062	0.23896
615.21206	0.19683
613.28350	0.27093
611.35493	0.38967
609.42637	0.44307
607.49780	0.38692
605.56924	0.38556
603.64067	0.45905
601.71211	0.51786
599.78354	0.52746
597.85498	0.48464
595.92642	0.39458
593.99785	0.35248
592.06929	0.37607
590.14072	0.42146
588.21216	0.46204
586.28359	0.55277
584.35503	0.75087
582.42646	0.67984
580.49790	0.49799
578.56934	0.44390
576.64077	0.37583
574.71221	0.30864
572.78364	0.27548
570.85508	0.24760
568.92651	0.23097
566.99795	0.28124
565.06938	0.60687
563.14082	3.37884
561.21226	0.58397
559.28369	0.36858
557.35513	0.38719
555.42656	0.52683
553.49800	0.62680
551.56943	0.60462
549.64087	0.46689
547.71230	0.33819
545.78374	0.27939
543.85518	0.27186
541.92661	0.32128
539.99805	0.43456
538.06948	0.57545
536.14092	0.63158
534.21235	0.56673
532.28379	0.43779
530.35522	0.34869
528.42666	0.35423
526.49810	0.37629
524.56953	0.35712
522.64097	0.32567
520.71240	0.30887
518.78384	0.32641
516.85527	0.36900
514.92671	0.37648
512.99814	0.33893
511.06958	0.38847
509.14102	0.77092
507.21245	1.50566
505.28389	0.47459
503.35532	0.41627
501.42676	0.54242
499.49819	0.65300
