3997.91411	0.07219
3995.98555	0.07325
3994.05698	0.07387
3992.12842	0.07373
3990.19985	0.07370
3988.27129	0.07415
3986.34272	0.07447
3984.41416	0.07458
3982.48560	0.07497
3980.55703	0.07556
3978.62847	0.07576
3976.69990	0.07578
3974.77134	0.07616
3972.84277	0.07657
3970.91421	0.07674
3968.98564	0.07689
3967.05708	0.07686
3965.12852	0.07666
3963.19995	0.07677
3961.27139	0.07733
3959.34282	0.07791
3957.41426	0.07833
3955.48569	0.07856
3953.55713	0.07850
3951.62856	0.07851
3949.70000	0.07916
3947.77144	0.08000
3945.84287	0.08001
3943.91431	0.07980
3941.98574	0.07974
3940.05718	0.07872
3938.12861	0.07756
3936.20005	0.07758
3934.27148	0.07863
3932.34292	0.08011
3930.41436	0.08074
3928.48579	0.07976
3926.55723	0.07897
3924.62866	0.07961
3922.70010	0.08022
3920.77153	0.07982
3918.84297	0.07980
3916.91440	0.08038
3914.98584	0.07983
3913.05728	0.07796
3911.12871	0.07656
3909.20015	0.07639
3907.27158	0.07741
3905.34302	0.08005
3903.41445	0.08355
3901.48589	0.08526
3899.55732	0.08457
3897.62876	0.08217
3895.70020	0.07964
3893.77163	0.07936
3891.84307	0.08120
3889.91450	0.08179
3887.98594	0.08023
3886.05737	0.08028
3884.12881	0.08235
3882.20024	0.08361
3880.27168	0.08374
3878.34312	0.08220
3876.41455	0.08020
3874.48599	0.08070
3872.55742	0.08338
3870.62886	0.08613
3868.70029	0.08716
3866.77173	0.08598
3864.84316	0.08569
3862.91460	0.08652
3860.98604	0.08550
3859.05747	0.08367
3857.12891	0.08392
3855.20034	0.08732
3853.27178	0.09348
3851.34321	0.09552
3849.41465	0.09067
3847.48608	0.08645
3845.55752	0.08522
3843.62896	0.08707
3841.70039	0.09075
3839.77183	0.09482
3837.84326	0.09794
3835.91470	0.09791
3833.98613	0.09600
3832.05757	0.09407
3830.12900	0.09243
3828.20044	0.09225
3826.27187	0.09372
3824.34331	0.09533
3822.41475	0.09760
3820.48618	0.10194
3818.55762	0.10389
3816.62905	0.10256
3814.70049	0.10096
3812.77192	0.09871
3810.84336	0.09730
3808.91479	0.09851
3806.98623	0.10228
3805.05767	0.10590
3803.12910	0.10819
3801.20054	0.11084
3799.27197	0.11175
3797.34341	0.11078
3795.41484	0.11010
3793.48628	0.10888
3791.55771	0.10786
3789.62915	0.10807
3787.70059	0.10940
3785.77202	0.11189
3783.84346	0.11467
3781.91489	0.11652
3779.98633	0.11821
3778.05776	0.11987
3776.12920	0.12041
3774.20063	0.12109
3772.27207	0.12320
3770.34351	0.12671
3768.41494	0.13021
3766.48638	0.13229
3764.55781	0.13379
3762.62925	0.13502
3760.70068	0.13724
3758.77212	0.14152
3756.84355	0.14532
3754.91499	0.14758
3752.98643	0.15153
3751.05786	0.15933
3749.12930	0.16629
3747.20073	0.16682
3745.27217	0.16698
3743.34360	0.16977
3741.41504	0.17188
3739.48647	0.17350
3737.55791	0.17754
3735.62935	0.18495
3733.70078	0.19187
3731.77222	0.19365
3729.84365	0.19412
3727.91509	0.19691
3725.98652	0.20265
3724.05796	0.20986
3722.12939	0.21680
3720.20083	0.22330
3718.27227	0.22919
3716.34370	0.23546
3714.41514	0.24333
3712.48657	0.25474
3710.55801	0.27084
3708.62944	0.28489
3706.70088	0.29369
3704.77231	0.30272
3702.84375	0.31538
3700.91519	0.33276
3698.98662	0.35085
3697.05806	0.36753
3695.12949	0.38616
3693.20093	0.40703
3691.27236	0.43119
3689.34380	0.46332
3687.41523	0.49909
3685.48667	0.52607
3683.55811	0.54934
3681.62954	0.57686
3679.70098	0.60957
3677.77241	0.64477
3675.84385	0.68719
3673.91528	0.74277
3671.98672	0.78537
3670.05815	0.82366
3668.12959	0.87697
3666.20103	0.92307
3664.27246	0.96115
3662.34390	1.00345
3660.41533	1.05017
3658.48677	1.09754
3656.55820	1.14927
3654.62964	1.20623
3652.70107	1.25275
3650.77251	1.29423
3648.84395	1.35420
3646.91538	1.42506
3644.98682	1.47171
3643.05825	1.50727
3641.12969	1.54594
3639.20112	1.58964
3637.27256	1.63409
3635.34399	1.67788
3633.41543	1.72189
3631.48687	1.76343
3629.55830	1.80679
3627.62974	1.86316
3625.70117	1.91122
3623.77261	1.94133
3621.84404	1.97302
3619.91548	2.01284
3617.98691	2.06153
3616.05835	2.10702
3614.12979	2.14417
3612.20122	2.18252
3610.27266	2.22096
3608.34409	2.26085
3606.41553	2.30269
3604.48696	2.33950
3602.55840	2.37283
3600.62983	2.41098
3598.70127	2.45324
3596.77271	2.49401
3594.84414	2.53494
3592.91558	2.57729
3590.98701	2.61720
3589.05845	2.65441
3587.12988	2.69912
3585.20132	2.74832
3583.27275	2.78835
3581.34419	2.82460
3579.41562	2.86479
3577.48706	2.90807
3575.55850	2.95076
3573.62993	2.99265
3571.70137	3.03273
3569.77280	3.07264
3567.84424	3.11896
3565.91567	3.17700
3563.98711	3.22677
3562.05854	3.26243
3560.12998	3.30145
3558.20142	3.34619
3556.27285	3.39089
3554.34429	3.43458
3552.41572	3.48211
3550.48716	3.53082
3548.55859	3.57514
3546.63003	3.61867
3544.70146	3.66738
3542.77290	3.71830
3540.84434	3.76528
3538.91577	3.80948
3536.98721	3.85405
3535.05864	3.90286
3533.13008	3.95420
3531.20151	4.00402
3529.27295	4.05218
3527.34438	4.10076
3525.41582	4.14687
3523.48726	4.19080
3521.55869	4.23829
3519.63013	4.28772
3517.70156	4.33769
3515.77300	4.38571
3513.84443	4.43096
3511.91587	4.47801
3509.98730	4.52873
3508.05874	4.57823
3506.13018	4.62161
3504.20161	4.66503
3502.27305	4.71576
3500.34448	4.76837
3498.41592	4.81609
3496.48735	4.86228
3494.55879	4.91087
3492.63022	4.96103
3490.70166	5.00943
3488.77310	5.05683
3486.84453	5.10570
3484.91597	5.15591
3482.98740	5.20524
3481.05884	5.25135
3479.13027	5.29741
3477.20171	5.34814
3475.27314	5.40303
3473.34458	5.46165
3471.41602	5.51697
3469.48745	5.55969
3467.55889	5.59810
3465.63032	5.64263
3463.70176	5.68989
3461.77319	5.73227
3459.84463	5.77441
3457.91606	5.82528
3455.98750	5.88501
3454.05894	5.94285
3452.13037	5.99574
3450.20181	6.05408
3448.27324	6.10861
3446.34468	6.14929
3444.41611	6.19286
3442.48755	6.25568
3440.55898	6.31840
3438.63042	6.35322
3436.70186	6.37068
3434.77329	6.40807
3432.84473	6.47181
3430.91616	6.53395
3428.98760	6.58546
3427.05903	6.63579
3425.13047	6.69428
3423.20190	6.75191
3421.27334	6.81323
3419.34478	6.87227
3417.41621	6.89738
3415.48765	6.89196
3413.55908	6.89513
3411.63052	6.94885
3409.70195	7.03941
3407.77339	7.13827
3405.84482	7.22721
3403.91626	7.27924
3401.98770	7.29383
3400.05913	7.31936
3398.13057	7.35948
3396.20200	7.37209
3394.27344	7.35672
3392.34487	7.34349
3390.41631	7.39062
3388.48774	7.47722
3386.55918	7.54237
3384.63062	7.57244
3382.70205	7.58971
3380.77349	7.62974
3378.84492	7.69854
3376.91636	7.74643
3374.98779	7.72479
3373.05923	7.70897
3371.13066	7.73605
3369.20210	7.77051
3367.27354	7.79269
3365.34497	7.83190
3363.41641	7.89306
3361.48784	7.95199
3359.55928	8.01824
3357.63071	8.03910
3355.70215	7.99394
3353.77358	7.94370
3351.84502	7.94187
3349.91646	7.94103
3347.98789	7.91107
3346.05933	7.88384
3344.13076	7.89418
3342.20220	7.95091
3340.27363	7.97491
3338.34507	8.00862
3336.41650	8.13184
3334.48794	8.22740
3332.55937	8.20215
3330.63081	8.21500
3328.70225	8.27034
3326.77368	8.22158
3324.84512	8.11661
3322.91655	8.04475
3320.98799	8.05229
3319.05942	8.13046
3317.13086	8.21055
3315.20229	8.21352
3313.27373	8.15353
3311.34517	8.10798
3309.41660	8.14774
3307.48804	8.21729
3305.55947	8.23513
3303.63091	8.28659
3301.70234	8.34473
3299.77378	8.31399
3297.84521	8.21581
3295.91665	8.18397
3293.98809	8.23691
3292.05952	8.22596
3290.13096	8.20610
3288.20239	8.33690
3286.27383	8.45869
3284.34526	8.32777
3282.41670	8.15236
3280.48813	8.10379
3278.55957	8.13095
3276.63101	8.15368
3274.70244	8.26664
3272.77388	8.48010
3270.84531	8.46784
3268.91675	8.29609
3266.98818	8.25508
3265.05962	8.28795
3263.13105	8.20247
3261.20249	8.06373
3259.27393	8.07622
3257.34536	8.24708
3255.41680	8.32477
3253.48823	8.21223
3251.55967	8.16012
3249.63110	8.20290
3247.70254	8.19636
3245.77397	8.14613
3243.84541	8.11411
3241.91685	8.09371
3239.98828	8.11177
3238.05972	8.19554
3236.13115	8.22197
3234.20259	8.15936
3232.27402	8.21570
3230.34546	8.37741
3228.41689	8.45202
3226.48833	8.50325
3224.55977	8.51037
3222.63120	8.35146
3220.70264	8.14995
3218.77407	8.00892
3216.84551	7.94570
3214.91694	7.94825
3212.98838	7.96208
3211.05981	7.97489
3209.13125	8.03112
3207.20269	8.07997
3205.27412	8.00795
3203.34556	7.89604
3201.41699	7.81329
3199.48843	7.72167
3197.55986	7.70418
3195.63130	7.77930
3193.70273	7.81786
3191.77417	7.76996
3189.84561	7.67880
3187.91704	7.61126
3185.98848	7.59362
3184.05991	7.53362
3182.13135	7.38311
3180.20278	7.25245
3178.27422	7.19238
3176.34565	7.17227
3174.41709	7.17339
3172.48853	7.15905
3170.55996	7.07796
3168.63140	6.96725
3166.70283	6.90982
3164.77427	6.88693
3162.84570	6.82796
3160.91714	6.75242
3158.98857	6.70539
3157.06001	6.65559
3155.13145	6.58670
3153.20288	6.52328
3151.27432	6.45600
3149.34575	6.36667
3147.41719	6.26854
3145.48862	6.19449
3143.56006	6.14984
3141.63149	6.10596
3139.70293	6.04350
3137.77437	5.96583
3135.84580	5.87914
3133.91724	5.79280
3131.98867	5.71841
3130.06011	5.65117
3128.13154	5.57272
3126.20298	5.48800
3124.27441	5.42273
3122.34585	5.36961
3120.41729	5.30854
3118.48872	5.24414
3116.56016	5.17497
3114.63159	5.09486
3112.70303	5.01399
3110.77446	4.93907
3108.84590	4.86864
3106.91733	4.80507
3104.98877	4.74613
3103.06021	4.68111
3101.13164	4.60742
3099.20308	4.53722
3097.27451	4.47416
3095.34595	4.41046
3093.41738	4.34487
3091.48882	4.27982
3089.56025	4.21576
3087.63169	4.15247
3085.70312	4.09086
3083.77456	4.03008
3081.84600	3.96851
3079.91743	3.90808
3077.98887	3.84992
3076.06030	3.79246
3074.13174	3.73487
3072.20317	3.67554
3070.27461	3.61470
3068.34604	3.55723
3066.41748	3.50349
3064.48892	3.44900
3062.56035	3.39263
3060.63179	3.33628
3058.70322	3.28141
3056.77466	3.22808
3054.84609	3.17602
3052.91753	3.12483
3050.98896	3.07323
3049.06040	3.02117
3047.13184	2.97033
3045.20327	2.92127
3043.27471	2.87354
3041.34614	2.82655
3039.41758	2.77930
3037.48901	2.73179
3035.56045	2.68483
3033.63188	2.63890
3031.70332	2.59380
3029.77476	2.54965
3027.84619	2.50696
3025.91763	2.46489
3023.98906	2.42252
3022.06050	2.38046
3020.13193	2.33899
3018.20337	2.29796
3016.27480	2.25808
3014.34624	2.21936
3012.41768	2.18092
3010.48911	2.14299
3008.56055	2.10585
3006.63198	2.06942
3004.70342	2.03376
3002.77485	1.99871
3000.84629	1.96442
2998.91772	1.93093
2996.98916	1.89793
2995.06060	1.86558
2993.13203	1.83372
2991.20347	1.80198
2989.27490	1.77078
2987.34634	1.74076
2985.41777	1.71175
2983.48921	1.68318
2981.56064	1.65494
2979.63208	1.62700
2977.70352	1.59917
2975.77495	1.57171
2973.84639	1.54492
2971.91782	1.51830
2969.98926	1.49205
2968.06069	1.46705
2966.13213	1.44283
2964.20356	1.41825
2962.27500	1.39348
2960.34644	1.36917
2958.41787	1.34549
2956.48931	1.32201
2954.56074	1.29848
2952.63218	1.27497
2950.70361	1.25162
2948.77505	1.22855
2946.84648	1.20613
2944.91792	1.18450
2942.98936	1.16334
2941.06079	1.14275
2939.13223	1.12286
2937.20366	1.10323
2935.27510	1.08352
2933.34653	1.06392
2931.41797	1.04482
2929.48940	1.02629
2927.56084	1.00838
2925.63228	0.99083
2923.70371	0.97344
2921.77515	0.95648
2919.84658	0.93949
2917.91802	0.92206
2915.98945	0.90447
2914.06089	0.88688
2912.13232	0.87006
2910.20376	0.85475
2908.27520	0.84046
2906.34663	0.82625
2904.41807	0.81171
2902.48950	0.79739
2900.56094	0.78375
2898.63237	0.77061
2896.70381	0.75761
2894.77524	0.74465
2892.84668	0.73223
2890.91812	0.72051
2888.98955	0.70898
2887.06099	0.69728
2885.13242	0.68602
2883.20386	0.67566
2881.27529	0.66563
2879.34673	0.65542
2877.41816	0.64516
2875.48960	0.63492
2873.56104	0.62458
2871.63247	0.61409
2869.70391	0.60347
2867.77534	0.59292
2865.84678	0.58235
2863.91821	0.57166
2861.98965	0.56101
2860.06108	0.55072
2858.13252	0.54122
2856.20396	0.53258
2854.27539	0.52421
2852.34683	0.51575
2850.41826	0.50723
2848.48970	0.49860
2846.56113	0.49001
2844.63257	0.48198
2842.70400	0.47489
2840.77544	0.46841
2838.84687	0.46192
2836.91831	0.45537
2834.98975	0.44925
2833.06118	0.44360
2831.13262	0.43792
2829.20405	0.43202
2827.27549	0.42602
2825.34692	0.42013
2823.41836	0.41442
2821.48979	0.40865
2819.56123	0.40267
2817.63267	0.39666
2815.70410	0.39080
2813.77554	0.38506
2811.84697	0.37952
2809.91841	0.37432
2807.98984	0.36928
2806.06128	0.36409
2804.13271	0.35877
2802.20415	0.35356
2800.27559	0.34845
2798.34702	0.34346
2796.41846	0.33865
2794.48989	0.33404
2792.56133	0.32966
2790.63276	0.32544
2788.70420	0.32122
2786.77563	0.31698
2784.84707	0.31265
2782.91851	0.30830
2780.98994	0.30420
2779.06138	0.30027
2777.13281	0.29623
2775.20425	0.29226
2773.27568	0.28850
2771.34712	0.28474
2769.41855	0.28106
2767.48999	0.27751
2765.56143	0.27405
2763.63286	0.27071
2761.70430	0.26744
2759.77573	0.26423
2757.84717	0.26106
2755.91860	0.25780
2753.99004	0.25466
2752.06147	0.25189
2750.13291	0.24920
2748.20435	0.24630
2746.27578	0.24328
2744.34722	0.24032
2742.41865	0.23759
2740.49009	0.23501
2738.56152	0.23249
2736.63296	0.23007
2734.70439	0.22768
2732.77583	0.22533
2730.84727	0.22311
2728.91870	0.22082
2726.99014	0.21848
2725.06157	0.21625
2723.13301	0.21407
2721.20444	0.21186
2719.27588	0.20982
2717.34731	0.20798
2715.41875	0.20618
2713.49019	0.20441
2711.56162	0.20270
2709.63306	0.20098
2707.70449	0.19915
2705.77593	0.19736
2703.84736	0.19571
2701.91880	0.19419
2699.99023	0.19279
2698.06167	0.19139
2696.13311	0.18987
2694.20454	0.18834
2692.27598	0.18686
2690.34741	0.18542
2688.41885	0.18409
2686.49028	0.18287
2684.56172	0.18166
2682.63315	0.18053
2680.70459	0.17955
2678.77603	0.17868
2676.84746	0.17779
2674.91890	0.17670
2672.99033	0.17542
2671.06177	0.17417
2669.13320	0.17309
2667.20464	0.17218
2665.27607	0.17136
2663.34751	0.17051
2661.41895	0.16957
2659.49038	0.16869
2657.56182	0.16798
2655.63325	0.16732
2653.70469	0.16660
2651.77612	0.16573
2649.84756	0.16492
2647.91899	0.16439
2645.99043	0.16397
2644.06187	0.16347
2642.13330	0.16292
2640.20474	0.16247
2638.27617	0.16205
2636.34761	0.16167
2634.41904	0.16123
2632.49048	0.16069
2630.56191	0.16015
2628.63335	0.15966
2626.70479	0.15923
2624.77622	0.15896
2622.84766	0.15883
2620.91909	0.15869
2618.99053	0.15844
2617.06196	0.15826
2615.13340	0.15822
2613.20483	0.15809
2611.27627	0.15775
2609.34771	0.15741
2607.41914	0.15729
2605.49058	0.15729
2603.56201	0.15720
2601.63345	0.15712
2599.70488	0.15719
2597.77632	0.15728
2595.84775	0.15731
2593.91919	0.15736
2591.99062	0.15741
2590.06206	0.15751
2588.13350	0.15777
2586.20493	0.15803
2584.27637	0.15817
2582.34780	0.15832
2580.41924	0.15855
2578.49067	0.15882
2576.56211	0.15917
2574.63354	0.15955
2572.70498	0.15991
2570.77642	0.16025
2568.84785	0.16059
2566.91929	0.16096
2564.99072	0.16134
2563.06216	0.16167
2561.13359	0.16201
2559.20503	0.16241
2557.27646	0.16286
2555.34790	0.16338
2553.41934	0.16400
2551.49077	0.16469
2549.56221	0.16531
2547.63364	0.16580
2545.70508	0.16625
2543.77651	0.16676
2541.84795	0.16740
2539.91938	0.16813
2537.99082	0.16875
2536.06226	0.16932
2534.13369	0.16995
2532.20513	0.17056
2530.27656	0.17113
2528.34800	0.17177
2526.41943	0.17254
2524.49087	0.17331
2522.56230	0.17413
2520.63374	0.17501
2518.70518	0.17574
2516.77661	0.17641
2514.84805	0.17723
2512.91948	0.17809
2510.99092	0.17889
2509.06235	0.17968
2507.13379	0.18040
2505.20522	0.18104
2503.27666	0.18179
2501.34810	0.18269
2499.41953	0.18359
2497.49097	0.18443
2495.56240	0.18530
2493.63384	0.18627
2491.70527	0.18731
2489.77671	0.18825
2487.84814	0.18905
2485.91958	0.18980
2483.99102	0.19062
2482.06245	0.19152
2480.13389	0.19239
2478.20532	0.19324
2476.27676	0.19398
2474.34819	0.19474
2472.41963	0.19575
2470.49106	0.19689
2468.56250	0.19787
2466.63394	0.19868
2464.70537	0.19957
2462.77681	0.20059
2460.84824	0.20160
2458.91968	0.20246
2456.99111	0.20330
2455.06255	0.20421
2453.13398	0.20518
2451.20542	0.20632
2449.27686	0.20749
2447.34829	0.20841
2445.41973	0.20924
2443.49116	0.21023
2441.56260	0.21134
2439.63403	0.21254
2437.70547	0.21371
2435.77690	0.21473
2433.84834	0.21569
2431.91978	0.21673
2429.99121	0.21784
2428.06265	0.21896
2426.13408	0.21998
2424.20552	0.22089
2422.27695	0.22181
2420.34839	0.22283
2418.41982	0.22396
2416.49126	0.22513
2414.56270	0.22631
2412.63413	0.22752
2410.70557	0.22863
2408.77700	0.22968
2406.84844	0.23083
2404.91987	0.23208
2402.99131	0.23326
2401.06274	0.23445
2399.13418	0.23573
2397.20562	0.23696
2395.27705	0.23815
2393.34849	0.23941
2391.41992	0.24078
2389.49136	0.24223
2387.56279	0.24359
2385.63423	0.24484
2383.70566	0.24617
2381.77710	0.24769
2379.84854	0.24932
2377.91997	0.25102
2375.99141	0.25287
2374.06284	0.25484
2372.13428	0.25682
2370.20571	0.25889
2368.27715	0.26182
2366.34858	0.26555
2364.42002	0.26751
2362.49146	0.26741
2360.56289	0.26870
2358.63433	0.27115
2356.70576	0.27255
2354.77720	0.27385
2352.84863	0.27537
2350.92007	0.27586
2348.99150	0.27567
2347.06294	0.27601
2345.13437	0.27785
2343.20581	0.28092
2341.27725	0.28314
2339.34868	0.28435
2337.42012	0.28592
2335.49155	0.28771
2333.56299	0.28892
2331.63442	0.29029
2329.70586	0.29245
2327.77729	0.29450
2325.84873	0.29572
2323.92017	0.29679
2321.99160	0.29832
2320.06304	0.29981
2318.13447	0.30086
2316.20591	0.30194
2314.27734	0.30349
2312.34878	0.30534
2310.42021	0.30717
2308.49165	0.30897
2306.56309	0.31077
2304.63452	0.31238
2302.70596	0.31387
2300.77739	0.31559
2298.84883	0.31748
2296.92026	0.31925
2294.99170	0.32093
2293.06313	0.32267
2291.13457	0.32455
2289.20601	0.32650
2287.27744	0.32838
2285.34888	0.33017
2283.42031	0.33210
2281.49175	0.33423
2279.56318	0.33635
2277.63462	0.33833
2275.70605	0.34036
2273.77749	0.34244
2271.84893	0.34447
2269.92036	0.34646
2267.99180	0.34850
2266.06323	0.35064
2264.13467	0.35282
2262.20610	0.35503
2260.27754	0.35727
2258.34897	0.35944
2256.42041	0.36151
2254.49185	0.36364
2252.56328	0.36582
2250.63472	0.36794
2248.70615	0.37001
2246.77759	0.37216
2244.84902	0.37442
2242.92046	0.37672
2240.99189	0.37902
2239.06333	0.38128
2237.13477	0.38352
2235.20620	0.38579
2233.27764	0.38806
2231.34907	0.39021
2229.42051	0.39233
2227.49194	0.39461
2225.56338	0.39699
2223.63481	0.39931
2221.70625	0.40149
2219.77769	0.40359
2217.84912	0.40567
2215.92056	0.40778
2213.99199	0.41001
2212.06343	0.41231
2210.13486	0.41455
2208.20630	0.41677
2206.27773	0.41890
2204.34917	0.42087
2202.42061	0.42282
2200.49204	0.42487
2198.56348	0.42698
2196.63491	0.42905
2194.70635	0.43098
2192.77778	0.43282
2190.84922	0.43473
2188.92065	0.43671
2186.99209	0.43858
2185.06353	0.44032
2183.13496	0.44202
2181.20640	0.44374
2179.27783	0.44545
2177.34927	0.44711
2175.42070	0.44872
2173.49214	0.45039
2171.56357	0.45204
2169.63501	0.45347
2167.70645	0.45467
2165.77788	0.45583
2163.84932	0.45705
2161.92075	0.45829
2159.99219	0.45947
2158.06362	0.46044
2156.13506	0.46126
2154.20649	0.46214
2152.27793	0.46303
2150.34937	0.46379
2148.42080	0.46448
2146.49224	0.46521
2144.56367	0.46577
2142.63511	0.46602
2140.70654	0.46618
2138.77798	0.46647
2136.84941	0.46675
2134.92085	0.46684
2132.99229	0.46677
2131.06372	0.46671
2129.13516	0.46669
2127.20659	0.46657
2125.27803	0.46625
2123.34946	0.46575
2121.42090	0.46518
2119.49233	0.46452
2117.56377	0.46381
2115.63521	0.46315
2113.70664	0.46245
2111.77808	0.46160
2109.84951	0.46072
2107.92095	0.45977
2105.99238	0.45864
2104.06382	0.45738
2102.13525	0.45603
2100.20669	0.45466
2098.27812	0.45332
2096.34956	0.45193
2094.42100	0.45051
2092.49243	0.44907
2090.56387	0.44740
2088.63530	0.44543
2086.70674	0.44344
2084.77817	0.44158
2082.84961	0.43974
2080.92104	0.43776
2078.99248	0.43571
2077.06392	0.43364
2075.13535	0.43149
2073.20679	0.42925
2071.27822	0.42700
2069.34966	0.42477
2067.42109	0.42252
2065.49253	0.42022
2063.56396	0.41779
2061.63540	0.41527
2059.70684	0.41275
2057.77827	0.41023
2055.84971	0.40764
2053.92114	0.40496
2051.99258	0.40235
2050.06401	0.39977
2048.13545	0.39713
2046.20688	0.39445
2044.27832	0.39184
2042.34976	0.38923
2040.42119	0.38643
2038.49263	0.38352
2036.56406	0.38067
2034.63550	0.37792
2032.70693	0.37519
2030.77837	0.37242
2028.84980	0.36962
2026.92124	0.36686
2024.99268	0.36408
2023.06411	0.36123
2021.13555	0.35846
2019.20698	0.35594
2017.27842	0.35345
2015.34985	0.35059
2013.42129	0.34746
2011.49272	0.34437
2009.56416	0.34143
2007.63560	0.33864
2005.70703	0.33592
2003.77847	0.33320
2001.84990	0.33058
1999.92134	0.32809
1997.99277	0.32550
1996.06421	0.32283
1994.13564	0.32044
1992.20708	0.31824
1990.27852	0.31566
1988.34995	0.31283
1986.42139	0.31008
1984.49282	0.30752
1982.56426	0.30514
1980.63569	0.30276
1978.70713	0.30039
1976.77856	0.29813
1974.85000	0.29587
1972.92144	0.29359
1970.99287	0.29153
1969.06431	0.28982
1967.13574	0.28804
1965.20718	0.28582
1963.27861	0.28354
1961.35005	0.28155
1959.42148	0.27965
1957.49292	0.27770
1955.56436	0.27581
1953.63579	0.27396
1951.70723	0.27212
1949.77866	0.27040
1947.85010	0.26892
1945.92153	0.26764
1943.99297	0.26648
1942.06440	0.26515
1940.13584	0.26329
1938.20728	0.26137
1936.27871	0.25980
1934.35015	0.25842
1932.42158	0.25718
1930.49302	0.25606
1928.56445	0.25495
1926.63589	0.25384
1924.70732	0.25311
1922.77876	0.25262
1920.85020	0.25170
1918.92163	0.25066
1916.99307	0.24963
1915.06450	0.24823
1913.13594	0.24698
1911.20737	0.24637
1909.27881	0.24600
1907.35024	0.24529
1905.42168	0.24427
1903.49312	0.24338
1901.56455	0.24279
1899.63599	0.24230
1897.70742	0.24190
1895.77886	0.24170
1893.85029	0.24146
1891.92173	0.24113
1889.99316	0.24114
1888.06460	0.24098
1886.13604	0.24038
1884.20747	0.23983
1882.27891	0.23945
1880.35034	0.23918
1878.42178	0.23904
1876.49321	0.23896
1874.56465	0.23892
1872.63608	0.23921
1870.70752	0.24030
1868.77896	0.24194
1866.85039	0.24222
1864.92183	0.24108
1862.99326	0.24030
1861.06470	0.24024
1859.13613	0.24057
1857.20757	0.24089
1855.27900	0.24117
1853.35044	0.24155
1851.42187	0.24218
1849.49331	0.24307
1847.56475	0.24428
1845.63618	0.24579
1843.70762	0.24705
1841.77905	0.24718
1839.85049	0.24695
1837.92192	0.24755
1835.99336	0.24853
1834.06479	0.24943
1832.13623	0.25077
1830.20767	0.25300
1828.27910	0.25475
1826.35054	0.25540
1824.42197	0.25630
1822.49341	0.25717
1820.56484	0.25802
1818.63628	0.25923
1816.70771	0.26076
1814.77915	0.26236
1812.85059	0.26438
1810.92202	0.26691
1808.99346	0.26909
1807.06489	0.27067
1805.13633	0.27230
1803.20776	0.27465
1801.27920	0.27770
1799.35063	0.28078
1797.42207	0.28319
1795.49351	0.28568
1793.56494	0.28918
1791.63638	0.29339
1789.70781	0.29608
1787.77925	0.29762
1785.85068	0.30040
1783.92212	0.30431
1781.99355	0.30857
1780.06499	0.31296
1778.13643	0.31713
1776.20786	0.32126
1774.27930	0.32646
1772.35073	0.33358
1770.42217	0.34001
1768.49360	0.34422
1766.56504	0.34840
1764.63647	0.35336
1762.70791	0.35955
1760.77935	0.36742
1758.85078	0.37449
1756.92222	0.38168
1754.99365	0.38958
1753.06509	0.39686
1751.13652	0.40610
1749.20796	0.41788
1747.27939	0.42853
1745.35083	0.43711
1743.42227	0.44620
1741.49370	0.45655
1739.56514	0.46895
1737.63657	0.48138
1735.70801	0.49266
1733.77944	0.51000
1731.85088	0.52937
1729.92231	0.54330
1727.99375	0.55772
1726.06519	0.57400
1724.13662	0.59261
1722.20806	0.61298
1720.27949	0.63213
1718.35093	0.65549
1716.42236	0.68960
1714.49380	0.71962
1712.56523	0.74263
1710.63667	0.76562
1708.70811	0.79128
1706.77954	0.82114
1704.85098	0.85672
1702.92241	0.88772
1700.99385	0.91797
1699.06528	0.96427
1697.13672	1.00699
1695.20815	1.04964
1693.27959	1.09022
1691.35103	1.12285
1689.42246	1.16155
1687.49390	1.20292
1685.56533	1.24294
1683.63677	1.30579
1681.70820	1.37035
1679.77964	1.40977
1677.85107	1.44775
1675.92251	1.49204
1673.99395	1.54779
1672.06538	1.59744
1670.13682	1.64558
1668.20825	1.70870
1666.27969	1.75911
1664.35112	1.80222
1662.42256	1.85788
1660.49399	1.92123
1658.56543	1.96830
1656.63687	2.00586
1654.70830	2.04238
1652.77974	2.10428
1650.85117	2.16210
1648.92261	2.18135
1646.99404	2.20891
1645.06548	2.23620
1643.13691	2.25358
1641.20835	2.26603
1639.27979	2.27848
1637.35122	2.28670
1635.42266	2.28914
1633.49409	2.28060
1631.56553	2.26410
1629.63696	2.24812
1627.70840	2.22333
1625.77983	2.19235
1623.85127	2.15164
1621.92271	2.10287
1619.99414	2.05964
1618.06558	2.01698
1616.13701	1.95450
1614.20845	1.88968
1612.27988	1.84074
1610.35132	1.79014
1608.42275	1.73530
1606.49419	1.68127
1604.56562	1.63171
1602.63706	1.58375
1600.70850	1.53711
1598.77993	1.49437
1596.85137	1.45434
1594.92280	1.41554
1592.99424	1.37754
1591.06567	1.34221
1589.13711	1.30888
1587.20854	1.27806
1585.27998	1.25008
1583.35142	1.22415
1581.42285	1.20037
1579.49429	1.18043
1577.56572	1.16338
1575.63716	1.14169
1573.70859	1.12097
1571.78003	1.10765
1569.85146	1.09470
1567.92290	1.07969
1565.99434	1.06818
1564.06577	1.05993
1562.13721	1.05384
1560.20864	1.05045
1558.28008	1.04747
1556.35151	1.04286
1554.42295	1.03817
1552.49438	1.03381
1550.56582	1.02912
1548.63726	1.02312
1546.70869	1.01651
1544.78013	1.00933
1542.85156	1.00130
1540.92300	0.98861
1538.99443	0.96173
1537.06587	0.94015
1535.13730	0.92733
1533.20874	0.91165
1531.28018	0.89426
1529.35161	0.88195
1527.42305	0.87140
1525.49448	0.86025
1523.56592	0.85026
1521.63735	0.84078
1519.70879	0.83056
1517.78022	0.82189
1515.85166	0.81178
1513.92310	0.80068
1511.99453	0.79172
1510.06597	0.78496
1508.13740	0.77935
1506.20884	0.76780
1504.28027	0.75502
1502.35171	0.74789
1500.42314	0.74298
1498.49458	0.73849
1496.56602	0.73238
1494.63745	0.72543
1492.70889	0.72057
1490.78032	0.71745
1488.85176	0.71344
1486.92319	0.70778
1484.99463	0.70272
1483.06606	0.69918
1481.13750	0.69660
1479.20894	0.69466
1477.28037	0.69384
1475.35181	0.69417
1473.42324	0.69456
1471.49468	0.69254
1469.56611	0.68864
1467.63755	0.68562
1465.70898	0.68375
1463.78042	0.68203
1461.85186	0.68058
1459.92329	0.68055
1457.99473	0.68184
1456.06616	0.68072
1454.13760	0.67619
1452.20903	0.67247
1450.28047	0.66978
1448.35190	0.66726
1446.42334	0.66417
1444.49478	0.66104
1442.56621	0.65844
1440.63765	0.65624
1438.70908	0.65452
1436.78052	0.65257
1434.85195	0.64950
1432.92339	0.64669
1430.99482	0.64508
1429.06626	0.64407
1427.13770	0.64328
1425.20913	0.64316
1423.28057	0.64360
1421.35200	0.64413
1419.42344	0.64492
1417.49487	0.64468
1415.56631	0.64261
1413.63774	0.64076
1411.70918	0.63983
1409.78062	0.63955
1407.85205	0.63979
1405.92349	0.64067
1403.99492	0.64132
1402.06636	0.64083
1400.13779	0.63999
1398.20923	0.63897
1396.28066	0.63696
1394.35210	0.63353
1392.42354	0.62933
1390.49497	0.62578
1388.56641	0.62297
1386.63784	0.61969
1384.70928	0.61551
1382.78071	0.61138
1380.85215	0.60773
1378.92358	0.60471
1376.99502	0.60268
1375.06646	0.60154
1373.13789	0.60032
1371.20933	0.59890
1369.28076	0.59792
1367.35220	0.59701
1365.42363	0.59593
1363.49507	0.59502
1361.56650	0.59376
1359.63794	0.59189
1357.70937	0.59030
1355.78081	0.58920
1353.85225	0.58828
1351.92368	0.58739
1349.99512	0.58658
1348.06655	0.58576
1346.13799	0.58486
1344.20942	0.58401
1342.28086	0.58354
1340.35229	0.58353
1338.42373	0.58315
1336.49517	0.58198
1334.56660	0.58073
1332.63804	0.57989
1330.70947	0.57953
1328.78091	0.57961
1326.85234	0.57985
1324.92378	0.58007
1322.99521	0.58036
1321.06665	0.58088
1319.13809	0.58144
1317.20952	0.58152
1315.28096	0.58106
1313.35239	0.58031
1311.42383	0.57941
1309.49526	0.57852
1307.56670	0.57777
1305.63813	0.57717
1303.70957	0.57653
1301.78101	0.57566
1299.85244	0.57460
1297.92388	0.57348
1295.99531	0.57224
1294.06675	0.57092
1292.13818	0.56973
1290.20962	0.56867
1288.28105	0.56760
1286.35249	0.56648
1284.42393	0.56533
1282.49536	0.56425
1280.56680	0.56338
1278.63823	0.56264
1276.70967	0.56177
1274.78110	0.56072
1272.85254	0.55979
1270.92397	0.55909
1268.99541	0.55839
1267.06685	0.55768
1265.13828	0.55706
1263.20972	0.55653
1261.28115	0.55597
1259.35259	0.55537
1257.42402	0.55483
1255.49546	0.55453
1253.56689	0.55455
1251.63833	0.55471
1249.70977	0.55475
1247.78120	0.55462
1245.85264	0.55441
1243.92407	0.55406
1241.99551	0.55343
1240.06694	0.55256
1238.13838	0.55141
1236.20981	0.54978
1234.28125	0.54782
1232.35269	0.54596
1230.42412	0.54434
1228.49556	0.54290
1226.56699	0.54161
1224.63843	0.54036
1222.70986	0.53913
1220.78130	0.53800
1218.85273	0.53693
1216.92417	0.53586
1214.99561	0.53480
1213.06704	0.53388
1211.13848	0.53319
1209.20991	0.53259
1207.28135	0.53188
1205.35278	0.53104
1203.42422	0.53019
1201.49565	0.52944
1199.56709	0.52878
1197.63853	0.52804
1195.70996	0.52730
1193.78140	0.52675
1191.85283	0.52620
1189.92427	0.52567
1187.99570	0.52546
1186.06714	0.52542
1184.13857	0.52533
1182.21001	0.52547
1180.28145	0.52605
1178.35288	0.52693
1176.42432	0.52804
1174.49575	0.52907
1172.56719	0.52964
1170.63862	0.52979
1168.71006	0.52980
1166.78149	0.52981
1164.85293	0.52981
1162.92437	0.52972
1160.99580	0.52953
1159.06724	0.52922
1157.13867	0.52860
1155.21011	0.52758
1153.28154	0.52621
1151.35298	0.52448
1149.42441	0.52233
1147.49585	0.51993
1145.56729	0.51750
1143.63872	0.51504
1141.71016	0.51263
1139.78159	0.51052
1137.85303	0.50874
1135.92446	0.50720
1133.99590	0.50603
1132.06733	0.50539
1130.13877	0.50491
1128.21021	0.50410
1126.28164	0.50302
1124.35308	0.50192
1122.42451	0.50096
1120.49595	0.50022
1118.56738	0.49950
1116.63882	0.49890
1114.71025	0.49880
1112.78169	0.49910
1110.85312	0.49957
1108.92456	0.50025
1106.99600	0.50121
1105.06743	0.50236
1103.13887	0.50368
1101.21030	0.50527
1099.28174	0.50716
1097.35317	0.50939
1095.42461	0.51227
1093.49604	0.51602
1091.56748	0.52043
1089.63892	0.52536
1087.71035	0.53087
1085.78179	0.53690
1083.85322	0.54330
1081.92466	0.54958
1079.99609	0.55486
1078.06753	0.55811
1076.13896	0.55883
1074.21040	0.55696
1072.28184	0.55276
1070.35327	0.54697
1068.42471	0.54040
1066.49614	0.53380
1064.56758	0.52763
1062.63901	0.52193
1060.71045	0.51671
1058.78188	0.51217
1056.85332	0.50828
1054.92476	0.50494
1052.99619	0.50201
1051.06763	0.49935
1049.13906	0.49693
1047.21050	0.49493
1045.28193	0.49349
1043.35337	0.49226
1041.42480	0.49108
1039.49624	0.49011
1037.56768	0.48928
1035.63911	0.48862
1033.71055	0.48831
1031.78198	0.48811
1029.85342	0.48769
1027.92485	0.48723
1025.99629	0.48706
1024.06772	0.48718
1022.13916	0.48746
1020.21060	0.48793
1018.28203	0.48868
1016.35347	0.48951
1014.42490	0.49017
1012.49634	0.49079
1010.56777	0.49163
1008.63921	0.49268
1006.71064	0.49393
1004.78208	0.49576
1002.85352	0.49827
1000.92495	0.50115
998.99639	0.50431
997.06782	0.50780
995.13926	0.51164
993.21069	0.51567
991.28213	0.51935
989.35356	0.52207
987.42500	0.52358
985.49644	0.52426
983.56787	0.52483
981.63931	0.52568
979.71074	0.52683
977.78218	0.52835
975.85361	0.53053
973.92505	0.53329
971.99648	0.53634
970.06792	0.53972
968.13936	0.54344
966.21079	0.54740
964.28223	0.55159
962.35366	0.55612
960.42510	0.56126
958.49653	0.56702
956.56797	0.57307
954.63940	0.57919
952.71084	0.58544
950.78228	0.59181
948.85371	0.59816
946.92515	0.60436
944.99658	0.61033
943.06802	0.61620
941.13945	0.62226
939.21089	0.62847
937.28232	0.63443
935.35376	0.63982
933.42520	0.64492
931.49663	0.65038
929.56807	0.65645
927.63950	0.66252
925.71094	0.66827
923.78237	0.67436
921.85381	0.68091
919.92524	0.68744
917.99668	0.69398
916.06812	0.70092
914.13955	0.70841
912.21099	0.71629
910.28242	0.72466
908.35386	0.73341
906.42529	0.74191
904.49673	0.75063
902.56816	0.76021
900.63960	0.77009
898.71104	0.78003
896.78247	0.78960
894.85391	0.79849
892.92534	0.80791
890.99678	0.81850
889.06821	0.83019
887.13965	0.84244
885.21108	0.85371
883.28252	0.86354
881.35396	0.87383
879.42539	0.88620
877.49683	0.89899
875.56826	0.91030
873.63970	0.92064
871.71113	0.93087
869.78257	0.94151
867.85400	0.95323
865.92544	0.96535
863.99687	0.97700
862.06831	0.98922
860.13975	1.00212
858.21118	1.01519
856.28262	1.02807
854.35405	1.03986
852.42549	1.05009
850.49692	1.05950
848.56836	1.07080
846.63979	1.08403
844.71123	1.09569
842.78267	1.10592
840.85410	1.11754
838.92554	1.13054
836.99697	1.14314
835.06841	1.15362
833.13984	1.16355
831.21128	1.17623
829.28271	1.18945
827.35415	1.19765
825.42559	1.20389
823.49702	1.22042
821.56846	1.24238
819.63989	1.25551
817.71133	1.26861
815.78276	1.28823
813.85420	1.30449
811.92563	1.31502
809.99707	1.32522
808.06851	1.33719
806.13994	1.35038
804.21138	1.36742
802.28281	1.38236
800.35425	1.38339
798.42568	1.39919
796.49712	1.45448
794.56855	1.51368
792.63999	1.52855
790.71143	1.51292
788.78286	1.50855
786.85430	1.50877
784.92573	1.50868
782.99717	1.51691
781.06860	1.54172
779.14004	1.61378
777.21147	1.72704
775.28291	1.80003
773.35435	1.83693
771.42578	1.87606
769.49722	1.73257
767.56865	1.61220
765.64009	1.60295
763.71152	1.76605
761.78296	2.16454
759.85439	1.79252
757.92583	1.56074
755.99727	1.73438
754.06870	4.52441
752.14014	4.51284
750.21157	4.50127
748.28301	2.18752
746.35444	1.83693
744.42588	1.56422
742.49731	1.30043
740.56875	1.19154
738.64019	1.08413
736.71162	0.89477
734.78306	0.76158
732.85449	0.69576
730.92593	0.70830
728.99736	0.73687
727.06880	0.49948
725.14023	0.28720
723.21167	0.24647
721.28311	0.29477
719.35454	0.37425
717.42598	0.35617
715.49741	0.09350
713.56885	-0.05537
711.64028	0.03572
709.71172	-0.06859
707.78315	-0.44466
705.85459	-0.25125
703.92603	0.38955
701.99746	0.44266
700.06890	0.49088
698.14033	0.51765
696.21177	0.48313
694.28320	0.45789
692.35464	0.34212
690.42607	0.20389
688.49751	0.17666
686.56895	0.30306
684.64038	0.46435
682.71182	0.52615
680.78325	0.44251
678.85469	0.32627
676.92612	0.31240
674.99756	0.32231
673.06899	0.22989
671.14043	0.17607
669.21187	0.23231
667.28330	0.29912
665.35474	0.32755
663.42617	0.33252
661.49761	0.31407
659.56904	0.24602
657.64048	0.17058
655.71191	0.19974
653.78335	0.36218
651.85479	0.49130
649.92622	0.31875
647.99766	0.20171
646.06909	0.17279
644.14053	0.16291
642.21196	0.18179
640.28340	0.24128
638.35483	0.27045
636.42627	0.32325
634.49771	0.39810
632.56914	0.27306
630.64058	0.08333
628.71201	0.01338
626.78345	0.04057
624.85488	0.12283
622.92632	0.25878
620.99775	0.38242
619.06919	0.45146
617.14062	0.35976
615.21206	0.26795
613.28350	0.22679
611.35493	0.20452
609.42637	0.21630
607.49780	0.26041
605.56924	0.27652
603.64067	0.27994
601.71211	0.33781
599.78354	0.40718
597.85498	0.31706
595.92642	0.17114
593.99785	0.13639
592.06929	0.23424
590.14072	0.37270
588.21216	0.37925
586.28359	0.37560
584.35503	0.41733
582.42646	0.36514
580.49790	0.22694
578.56934	0.18604
576.64077	0.23216
574.71221	0.28792
572.78364	0.27882
570.85508	0.23411
568.92651	0.20315
566.99795	0.19133
565.06938	0.18822
563.14082	0.19483
561.21226	0.21647
559.28369	0.26276
557.35513	0.35338
555.42656	0.42334
553.49800	0.40509
551.56943	0.35472
549.64087	0.27694
547.71230	0.21868
545.78374	0.21888
543.85518	0.24506
541.92661	0.26568
539.99805	0.26578
538.06948	0.21893
536.14092	0.15512
534.21235	0.12722
532.28379	0.13340
530.35522	0.15341
528.42666	0.19140
526.49810	0.20297
524.56953	0.19125
522.64097	0.22934
520.71240	0.25330
518.78384	0.22044
516.85527	0.19794
514.92671	0.19802
512.99814	0.15738
511.06958	0.07289
509.14102	0.02907
507.21245	0.06422
505.28389	0.12300
503.35532	0.15289
501.42676	0.14470
499.49819	0.12226
