3997.91411	0.07413
3995.98555	0.07479
3994.05698	0.07521
3992.12842	0.07545
3990.19985	0.07565
3988.27129	0.07579
3986.34272	0.07601
3984.41416	0.07625
3982.48560	0.07641
3980.55703	0.07666
3978.62847	0.07689
3976.69990	0.07725
3974.77134	0.07794
3972.84277	0.07832
3970.91421	0.07825
3968.98564	0.07838
3967.05708	0.07859
3965.12852	0.07865
3963.19995	0.07911
3961.27139	0.07986
3959.34282	0.08025
3957.41426	0.08037
3955.48569	0.08027
3953.55713	0.07978
3951.62856	0.07972
3949.70000	0.08071
3947.77144	0.08181
3945.84287	0.08199
3943.91431	0.08227
3941.98574	0.08272
3940.05718	0.08152
3938.12861	0.07957
3936.20005	0.07908
3934.27148	0.08039
3932.34292	0.08263
3930.41436	0.08379
3928.48579	0.08286
3926.55723	0.08216
3924.62866	0.08306
3922.70010	0.08342
3920.77153	0.08248
3918.84297	0.08240
3916.91440	0.08313
3914.98584	0.08216
3913.05728	0.07945
3911.12871	0.07764
3909.20015	0.07767
3907.27158	0.07950
3905.34302	0.08363
3903.41445	0.08866
3901.48589	0.09071
3899.55732	0.08943
3897.62876	0.08632
3895.70020	0.08304
3893.77163	0.08240
3891.84307	0.08466
3889.91450	0.08558
3887.98594	0.08364
3886.05737	0.08367
3884.12881	0.08627
3882.20024	0.08785
3880.27168	0.08790
3878.34312	0.08567
3876.41455	0.08288
3874.48599	0.08350
3872.55742	0.08729
3870.62886	0.09125
3868.70029	0.09245
3866.77173	0.09060
3864.84316	0.09054
3862.91460	0.09206
3860.98604	0.09050
3859.05747	0.08777
3857.12891	0.08796
3855.20034	0.09217
3853.27178	0.09975
3851.34321	0.10193
3849.41465	0.09525
3847.48608	0.08969
3845.55752	0.08852
3843.62896	0.09148
3841.70039	0.09641
3839.77183	0.10135
3837.84326	0.10460
3835.91470	0.10345
3833.98613	0.10011
3832.05757	0.09782
3830.12900	0.09651
3828.20044	0.09634
3826.27187	0.09779
3824.34331	0.10012
3822.41475	0.10385
3820.48618	0.10924
3818.55762	0.11033
3816.62905	0.10806
3814.70049	0.10580
3812.77192	0.10215
3810.84336	0.09966
3808.91479	0.10096
3806.98623	0.10578
3805.05767	0.11044
3803.12910	0.11370
3801.20054	0.11753
3799.27197	0.11813
3797.34341	0.11590
3795.41484	0.11423
3793.48628	0.11177
3791.55771	0.10971
3789.62915	0.10973
3787.70059	0.11148
3785.77202	0.11449
3783.84346	0.11751
3781.91489	0.11939
3779.98633	0.12150
3778.05776	0.12348
3776.12920	0.12331
3774.20063	0.12318
3772.27207	0.12528
3770.34351	0.12959
3768.41494	0.13408
3766.48638	0.13638
3764.55781	0.13736
3762.62925	0.13799
3760.70068	0.14036
3758.77212	0.14552
3756.84355	0.14987
3754.91499	0.15226
3752.98643	0.15706
3751.05786	0.16670
3749.12930	0.17482
3747.20073	0.17496
3745.27217	0.17459
3743.34360	0.17677
3741.41504	0.17841
3739.48647	0.18041
3737.55791	0.18566
3735.62935	0.19501
3733.70078	0.20348
3731.77222	0.20442
3729.84365	0.20276
3727.91509	0.20428
3725.98652	0.21030
3724.05796	0.21853
3722.12939	0.22570
3720.20083	0.23113
3718.27227	0.23557
3716.34370	0.24090
3714.41514	0.24881
3712.48657	0.26157
3710.55801	0.27924
3708.62944	0.29267
3706.70088	0.29988
3704.77231	0.30836
3702.84375	0.32160
3700.91519	0.33961
3698.98662	0.35759
3697.05806	0.37410
3695.12949	0.39285
3693.20093	0.41415
3691.27236	0.43918
3689.34380	0.47167
3687.41523	0.50636
3685.48667	0.53239
3683.55811	0.55518
3681.62954	0.58235
3679.70098	0.61547
3677.77241	0.65215
3675.84385	0.69638
3673.91528	0.75254
3671.98672	0.79447
3670.05815	0.83231
3668.12959	0.88455
3666.20103	0.92907
3664.27246	0.96627
3662.34390	1.00855
3660.41533	1.05590
3658.48677	1.10377
3656.55820	1.15567
3654.62964	1.21300
3652.70107	1.26040
3650.77251	1.30356
3648.84395	1.36578
3646.91538	1.43676
3644.98682	1.48121
3643.05825	1.51493
3641.12969	1.55293
3639.20112	1.59706
3637.27256	1.64224
3635.34399	1.68673
3633.41543	1.73166
3631.48687	1.77380
3629.55830	1.81751
3627.62974	1.87450
3625.70117	1.92256
3623.77261	1.95271
3621.84404	1.98531
3619.91548	2.02653
3617.98691	2.07525
3616.05835	2.11840
3614.12979	2.15370
3612.20122	2.19220
3610.27266	2.23172
3608.34409	2.27250
3606.41553	2.31496
3604.48696	2.35178
3602.55840	2.38451
3600.62983	2.42260
3598.70127	2.46582
3596.77271	2.50739
3594.84414	2.54844
3592.91558	2.59045
3590.98701	2.62933
3589.05845	2.66567
3587.12988	2.71020
3585.20132	2.75850
3583.27275	2.79804
3581.34419	2.83468
3579.41562	2.87373
3577.48706	2.91539
3575.55850	2.95909
3573.62993	3.00449
3571.70137	3.04815
3569.77280	3.08898
3567.84424	3.13266
3565.91567	3.18760
3563.98711	3.23829
3562.05854	3.27655
3560.12998	3.31598
3558.20142	3.35917
3556.27285	3.40363
3554.34429	3.44959
3552.41572	3.49945
3550.48716	3.54839
3548.55859	3.59149
3546.63003	3.63457
3544.70146	3.68250
3542.77290	3.73045
3540.84434	3.77676
3538.91577	3.82163
3536.98721	3.86460
3535.05864	3.91243
3533.13008	3.96468
3531.20151	4.01609
3529.27295	4.06590
3527.34438	4.11592
3525.41582	4.16340
3523.48726	4.20648
3521.55869	4.25084
3519.63013	4.29646
3517.70156	4.34194
3515.77300	4.38872
3513.84443	4.43666
3511.91587	4.48172
3509.98730	4.52599
3508.05874	4.57532
3506.13018	4.62530
3504.20161	4.67400
3502.27305	4.72364
3500.34448	4.77086
3498.41592	4.81634
3496.48735	4.86283
3494.55879	4.90997
3492.63022	4.96054
3490.70166	5.01478
3488.77310	5.06583
3486.84453	5.10839
3484.91597	5.14832
3482.98740	5.19416
3481.05884	5.24697
3479.13027	5.29833
3477.20171	5.34360
3475.27314	5.38737
3473.34458	5.43154
3471.41602	5.48116
3469.48745	5.54513
3467.55889	5.61890
3465.63032	5.67718
3463.70176	5.71141
3461.77319	5.74430
3459.84463	5.78827
3457.91606	5.83476
3455.98750	5.88506
3454.05894	5.93859
3452.13037	5.98523
3450.20181	6.02605
3448.27324	6.06375
3446.34468	6.11120
3444.41611	6.17698
3442.48755	6.24980
3440.55898	6.31278
3438.63042	6.35865
3436.70186	6.39131
3434.77329	6.42871
3432.84473	6.48736
3430.91616	6.54050
3428.98760	6.56513
3427.05903	6.59039
3425.13047	6.64197
3423.20190	6.68166
3421.27334	6.70695
3419.34478	6.75637
3417.41621	6.81254
3415.48765	6.86720
3413.55908	6.92707
3411.63052	6.98204
3409.70195	7.02155
3407.77339	7.05763
3405.84482	7.11490
3403.91626	7.18610
3401.98770	7.21898
3400.05913	7.22594
3398.13057	7.26309
3396.20200	7.31451
3394.27344	7.33989
3392.34487	7.34105
3390.41631	7.37798
3388.48774	7.46261
3386.55918	7.53942
3384.63062	7.55133
3382.70205	7.52459
3380.77349	7.51358
3378.84492	7.51664
3376.91636	7.53498
3374.98779	7.56630
3373.05923	7.61722
3371.13066	7.68033
3369.20210	7.76933
3367.27354	7.85980
3365.34497	7.88233
3363.41641	7.85321
3361.48784	7.83325
3359.55928	7.86493
3357.63071	7.91967
3355.70215	7.94200
3353.77358	7.91480
3351.84502	7.86591
3349.91646	7.83009
3347.98789	7.90002
3346.05933	8.06656
3344.13076	8.13851
3342.20220	8.03275
3340.27363	7.86912
3338.34507	7.81496
3336.41650	7.88672
3334.48794	7.97919
3332.55937	8.00582
3330.63081	8.00092
3328.70225	7.98675
3326.77368	7.96689
3324.84512	8.02873
3322.91655	8.08200
3320.98799	7.98619
3319.05942	7.91396
3317.13086	8.02551
3315.20229	8.18710
3313.27373	8.20278
3311.34517	8.08485
3309.41660	7.96136
3307.48804	7.93815
3305.55947	7.98220
3303.63091	7.96544
3301.70234	7.87734
3299.77378	7.84159
3297.84521	7.88843
3295.91665	7.95231
3293.98809	7.98297
3292.05952	8.01623
3290.13096	8.10788
3288.20239	8.23405
3286.27383	8.26411
3284.34526	8.13600
3282.41670	7.98460
3280.48813	7.91323
3278.55957	7.97443
3276.63101	8.08175
3274.70244	8.09559
3272.77388	8.02752
3270.84531	7.97344
3268.91675	8.05694
3266.98818	8.27179
3265.05962	8.44519
3263.13105	8.40045
3261.20249	8.26282
3259.27393	8.22916
3257.34536	8.26633
3255.41680	8.25818
3253.48823	8.18326
3251.55967	8.12219
3249.63110	8.18548
3247.70254	8.36498
3245.77397	8.44710
3243.84541	8.34787
3241.91685	8.19695
3239.98828	8.08459
3238.05972	8.09419
3236.13115	8.19578
3234.20259	8.24105
3232.27402	8.22025
3230.34546	8.17700
3228.41689	8.07401
3226.48833	7.93897
3224.55977	7.85617
3222.63120	7.85167
3220.70264	7.87147
3218.77407	7.94038
3216.84551	8.08468
3214.91694	8.14551
3212.98838	8.07115
3211.05981	8.00875
3209.13125	8.00359
3207.20269	8.00976
3205.27412	7.95444
3203.34556	7.81194
3201.41699	7.66417
3199.48843	7.57484
3197.55986	7.55831
3195.63130	7.59145
3193.70273	7.62236
3191.77417	7.65777
3189.84561	7.70860
3187.91704	7.67731
3185.98848	7.53790
3184.05991	7.40615
3182.13135	7.32258
3180.20278	7.24961
3178.27422	7.16629
3176.34565	7.11064
3174.41709	7.10829
3172.48853	7.10958
3170.55996	7.08533
3168.63140	7.04217
3166.70283	6.97081
3164.77427	6.89332
3162.84570	6.83011
3160.91714	6.76761
3158.98857	6.69831
3157.06001	6.61675
3155.13145	6.52865
3153.20288	6.45560
3151.27432	6.40582
3149.34575	6.34650
3147.41719	6.26160
3145.48862	6.18499
3143.56006	6.12296
3141.63149	6.06225
3139.70293	5.99901
3137.77437	5.92988
3135.84580	5.85571
3133.91724	5.78253
3131.98867	5.71695
3130.06011	5.65042
3128.13154	5.57292
3126.20298	5.49614
3124.27441	5.42826
3122.34585	5.36019
3120.41729	5.28914
3118.48872	5.22027
3116.56016	5.15602
3114.63159	5.09156
3112.70303	5.02460
3110.77446	4.95681
3108.84590	4.88621
3106.91733	4.81592
3104.98877	4.74835
3103.06021	4.67947
3101.13164	4.60953
3099.20308	4.54353
3097.27451	4.47765
3095.34595	4.40882
3093.41738	4.34379
3091.48882	4.28232
3089.56025	4.21985
3087.63169	4.15681
3085.70312	4.09535
3083.77456	4.03668
3081.84600	3.97952
3079.91743	3.92103
3077.98887	3.86065
3076.06030	3.79865
3074.13174	3.73518
3072.20317	3.67314
3070.27461	3.61497
3068.34604	3.56055
3066.41748	3.50729
3064.48892	3.45305
3062.56035	3.39830
3060.63179	3.34273
3058.70322	3.28674
3056.77466	3.23272
3054.84609	3.18111
3052.91753	3.13033
3050.98896	3.07973
3049.06040	3.02864
3047.13184	2.97655
3045.20327	2.92523
3043.27471	2.87649
3041.34614	2.83018
3039.41758	2.78505
3037.48901	2.73978
3035.56045	2.69359
3033.63188	2.64724
3031.70332	2.60194
3029.77476	2.55788
3027.84619	2.51485
3025.91763	2.47217
3023.98906	2.42938
3022.06050	2.38685
3020.13193	2.34529
3018.20337	2.30488
3016.27480	2.26522
3014.34624	2.22651
3012.41768	2.18838
3010.48911	2.15008
3008.56055	2.11248
3006.63198	2.07620
3004.70342	2.04054
3002.77485	2.00514
3000.84629	1.97047
2998.91772	1.93693
2996.98916	1.90424
2995.06060	1.87171
2993.13203	1.83930
2991.20347	1.80782
2989.27490	1.77749
2987.34634	1.74775
2985.41777	1.71835
2983.48921	1.68984
2981.56064	1.66214
2979.63208	1.63396
2977.70352	1.60514
2975.77495	1.57703
2973.84639	1.55023
2971.91782	1.52446
2969.98926	1.49945
2968.06069	1.47466
2966.13213	1.44974
2964.20356	1.42490
2962.27500	1.40018
2960.34644	1.37532
2958.41787	1.35063
2956.48931	1.32666
2954.56074	1.30325
2952.63218	1.27990
2950.70361	1.25661
2948.77505	1.23396
2946.84648	1.21216
2944.91792	1.19046
2942.98936	1.16864
2941.06079	1.14736
2939.13223	1.12707
2937.20366	1.10712
2935.27510	1.08653
2933.34653	1.06599
2931.41797	1.04630
2929.48940	1.02692
2927.56084	1.00802
2925.63228	0.98993
2923.70371	0.97224
2921.77515	0.95458
2919.84658	0.93690
2917.91802	0.91957
2915.98945	0.90309
2914.06089	0.88734
2912.13232	0.87186
2910.20376	0.85644
2908.27520	0.84137
2906.34663	0.82716
2904.41807	0.81358
2902.48950	0.79990
2900.56094	0.78627
2898.63237	0.77314
2896.70381	0.76026
2894.77524	0.74773
2892.84668	0.73576
2890.91812	0.72406
2888.98955	0.71250
2887.06099	0.70082
2885.13242	0.68930
2883.20386	0.67866
2881.27529	0.66870
2879.34673	0.65884
2877.41816	0.64878
2875.48960	0.63852
2873.56104	0.62815
2871.63247	0.61760
2869.70391	0.60693
2867.77534	0.59627
2865.84678	0.58523
2863.91821	0.57373
2861.98965	0.56262
2860.06108	0.55229
2858.13252	0.54235
2856.20396	0.53276
2854.27539	0.52372
2852.34683	0.51509
2850.41826	0.50677
2848.48970	0.49858
2846.56113	0.49045
2844.63257	0.48284
2842.70400	0.47616
2840.77544	0.47012
2838.84687	0.46413
2836.91831	0.45807
2834.98975	0.45217
2833.06118	0.44653
2831.13262	0.44096
2829.20405	0.43523
2827.27549	0.42933
2825.34692	0.42337
2823.41836	0.41743
2821.48979	0.41154
2819.56123	0.40566
2817.63267	0.39980
2815.70410	0.39407
2813.77554	0.38847
2811.84697	0.38287
2809.91841	0.37749
2807.98984	0.37236
2806.06128	0.36712
2804.13271	0.36185
2802.20415	0.35683
2800.27559	0.35186
2798.34702	0.34676
2796.41846	0.34172
2794.48989	0.33694
2792.56133	0.33241
2790.63276	0.32812
2788.70420	0.32393
2786.77563	0.31973
2784.84707	0.31545
2782.91851	0.31121
2780.98994	0.30719
2779.06138	0.30333
2777.13281	0.29953
2775.20425	0.29574
2773.27568	0.29178
2771.34712	0.28775
2769.41855	0.28402
2767.48999	0.28064
2765.56143	0.27727
2763.63286	0.27373
2761.70430	0.27015
2759.77573	0.26678
2757.84717	0.26360
2755.91860	0.26038
2753.99004	0.25723
2752.06147	0.25437
2750.13291	0.25161
2748.20435	0.24872
2746.27578	0.24582
2744.34722	0.24302
2742.41865	0.24025
2740.49009	0.23757
2738.56152	0.23503
2736.63296	0.23255
2734.70439	0.23004
2732.77583	0.22758
2730.84727	0.22521
2728.91870	0.22281
2726.99014	0.22044
2725.06157	0.21824
2723.13301	0.21609
2721.20444	0.21391
2719.27588	0.21185
2717.34731	0.20996
2715.41875	0.20812
2713.49019	0.20630
2711.56162	0.20453
2709.63306	0.20279
2707.70449	0.20106
2705.77593	0.19939
2703.84736	0.19782
2701.91880	0.19626
2699.99023	0.19466
2698.06167	0.19311
2696.13311	0.19175
2694.20454	0.19041
2692.27598	0.18887
2690.34741	0.18734
2688.41885	0.18603
2686.49028	0.18480
2684.56172	0.18360
2682.63315	0.18257
2680.70459	0.18164
2678.77603	0.18065
2676.84746	0.17953
2674.91890	0.17833
2672.99033	0.17713
2671.06177	0.17601
2669.13320	0.17493
2667.20464	0.17389
2665.27607	0.17294
2663.34751	0.17206
2661.41895	0.17119
2659.49038	0.17040
2657.56182	0.16978
2655.63325	0.16915
2653.70469	0.16829
2651.77612	0.16732
2649.84756	0.16657
2647.91899	0.16606
2645.99043	0.16559
2644.06187	0.16512
2642.13330	0.16464
2640.20474	0.16414
2638.27617	0.16367
2636.34761	0.16329
2634.41904	0.16289
2632.49048	0.16241
2630.56191	0.16199
2628.63335	0.16155
2626.70479	0.16104
2624.77622	0.16063
2622.84766	0.16037
2620.91909	0.16020
2618.99053	0.16010
2617.06196	0.15997
2615.13340	0.15978
2613.20483	0.15955
2611.27627	0.15924
2609.34771	0.15900
2607.41914	0.15899
2605.49058	0.15903
2603.56201	0.15890
2601.63345	0.15871
2599.70488	0.15867
2597.77632	0.15875
2595.84775	0.15879
2593.91919	0.15879
2591.99062	0.15874
2590.06206	0.15881
2588.13350	0.15916
2586.20493	0.15951
2584.27637	0.15967
2582.34780	0.15986
2580.41924	0.16018
2578.49067	0.16046
2576.56211	0.16061
2574.63354	0.16082
2572.70498	0.16128
2570.77642	0.16182
2568.84785	0.16224
2566.91929	0.16259
2564.99072	0.16292
2563.06216	0.16322
2561.13359	0.16362
2559.20503	0.16420
2557.27646	0.16474
2555.34790	0.16505
2553.41934	0.16544
2551.49077	0.16609
2549.56221	0.16672
2547.63364	0.16712
2545.70508	0.16747
2543.77651	0.16803
2541.84795	0.16873
2539.91938	0.16942
2537.99082	0.17009
2536.06226	0.17077
2534.13369	0.17146
2532.20513	0.17212
2530.27656	0.17277
2528.34800	0.17346
2526.41943	0.17423
2524.49087	0.17496
2522.56230	0.17564
2520.63374	0.17635
2518.70518	0.17708
2516.77661	0.17782
2514.84805	0.17856
2512.91948	0.17930
2510.99092	0.18013
2509.06235	0.18102
2507.13379	0.18183
2505.20522	0.18257
2503.27666	0.18339
2501.34810	0.18423
2499.41953	0.18498
2497.49097	0.18573
2495.56240	0.18662
2493.63384	0.18762
2491.70527	0.18861
2489.77671	0.18946
2487.84814	0.19018
2485.91958	0.19094
2483.99102	0.19187
2482.06245	0.19280
2480.13389	0.19357
2478.20532	0.19430
2476.27676	0.19507
2474.34819	0.19586
2472.41963	0.19685
2470.49106	0.19808
2468.56250	0.19919
2466.63394	0.19999
2464.70537	0.20077
2462.77681	0.20172
2460.84824	0.20270
2458.91968	0.20358
2456.99111	0.20455
2455.06255	0.20560
2453.13398	0.20654
2451.20542	0.20750
2449.27686	0.20855
2447.34829	0.20952
2445.41973	0.21034
2443.49116	0.21127
2441.56260	0.21240
2439.63403	0.21356
2437.70547	0.21463
2435.77690	0.21566
2433.84834	0.21676
2431.91978	0.21788
2429.99121	0.21893
2428.06265	0.21988
2426.13408	0.22083
2424.20552	0.22182
2422.27695	0.22286
2420.34839	0.22402
2418.41982	0.22524
2416.49126	0.22636
2414.56270	0.22740
2412.63413	0.22858
2410.70557	0.22985
2408.77700	0.23100
2406.84844	0.23206
2404.91987	0.23321
2402.99131	0.23448
2401.06274	0.23574
2399.13418	0.23688
2397.20562	0.23792
2395.27705	0.23902
2393.34849	0.24033
2391.41992	0.24179
2389.49136	0.24326
2387.56279	0.24481
2385.63423	0.24674
2383.70566	0.24931
2381.77710	0.25244
2379.84854	0.25605
2377.91997	0.26026
2375.99141	0.26499
2374.06284	0.27028
2372.13428	0.27621
2370.20571	0.28262
2368.27715	0.28951
2366.34858	0.29653
2364.42002	0.30256
2362.49146	0.30652
2360.56289	0.30830
2358.63433	0.30902
2356.70576	0.30837
2354.77720	0.30591
2352.84863	0.30279
2350.92007	0.29904
2348.99150	0.29609
2347.06294	0.29622
2345.13437	0.30086
2343.20581	0.30796
2341.27725	0.31205
2339.34868	0.31310
2337.42012	0.31370
2335.49155	0.31435
2333.56299	0.31504
2331.63442	0.31612
2329.70586	0.31741
2327.77729	0.31833
2325.84873	0.31831
2323.92017	0.31785
2321.99160	0.31775
2320.06304	0.31761
2318.13447	0.31707
2316.20591	0.31666
2314.27734	0.31695
2312.34878	0.31779
2310.42021	0.31868
2308.49165	0.31943
2306.56309	0.31995
2304.63452	0.32030
2302.70596	0.32104
2300.77739	0.32225
2298.84883	0.32342
2296.92026	0.32447
2294.99170	0.32559
2293.06313	0.32684
2291.13457	0.32810
2289.20601	0.32935
2287.27744	0.33063
2285.34888	0.33208
2283.42031	0.33389
2281.49175	0.33600
2279.56318	0.33819
2277.63462	0.34039
2275.70605	0.34259
2273.77749	0.34475
2271.84893	0.34680
2269.92036	0.34874
2267.99180	0.35075
2266.06323	0.35288
2264.13467	0.35503
2262.20610	0.35709
2260.27754	0.35906
2258.34897	0.36107
2256.42041	0.36318
2254.49185	0.36536
2252.56328	0.36761
2250.63472	0.36983
2248.70615	0.37188
2246.77759	0.37379
2244.84902	0.37581
2242.92046	0.37799
2240.99189	0.38024
2239.06333	0.38253
2237.13477	0.38481
2235.20620	0.38706
2233.27764	0.38926
2231.34907	0.39139
2229.42051	0.39359
2227.49194	0.39586
2225.56338	0.39809
2223.63481	0.40034
2221.70625	0.40258
2219.77769	0.40478
2217.84912	0.40701
2215.92056	0.40929
2213.99199	0.41153
2212.06343	0.41365
2210.13486	0.41575
2208.20630	0.41797
2206.27773	0.42023
2204.34917	0.42241
2202.42061	0.42447
2200.49204	0.42635
2198.56348	0.42825
2196.63491	0.43026
2194.70635	0.43225
2192.77778	0.43411
2190.84922	0.43601
2188.92065	0.43799
2186.99209	0.43985
2185.06353	0.44157
2183.13496	0.44333
2181.20640	0.44516
2179.27783	0.44692
2177.34927	0.44855
2175.42070	0.45008
2173.49214	0.45162
2171.56357	0.45310
2169.63501	0.45446
2167.70645	0.45576
2165.77788	0.45704
2163.84932	0.45829
2161.92075	0.45950
2159.99219	0.46064
2158.06362	0.46166
2156.13506	0.46252
2154.20649	0.46332
2152.27793	0.46418
2150.34937	0.46496
2148.42080	0.46563
2146.49224	0.46624
2144.56367	0.46676
2142.63511	0.46711
2140.70654	0.46738
2138.77798	0.46766
2136.84941	0.46789
2134.92085	0.46806
2132.99229	0.46808
2131.06372	0.46793
2129.13516	0.46776
2127.20659	0.46757
2125.27803	0.46726
2123.34946	0.46685
2121.42090	0.46649
2119.49233	0.46604
2117.56377	0.46530
2115.63521	0.46443
2113.70664	0.46367
2111.77808	0.46291
2109.84951	0.46208
2107.92095	0.46112
2105.99238	0.45990
2104.06382	0.45853
2102.13525	0.45722
2100.20669	0.45600
2098.27812	0.45473
2096.34956	0.45333
2094.42100	0.45181
2092.49243	0.45022
2090.56387	0.44862
2088.63530	0.44688
2086.70674	0.44490
2084.77817	0.44285
2082.84961	0.44091
2080.92104	0.43900
2078.99248	0.43700
2077.06392	0.43488
2075.13535	0.43271
2073.20679	0.43049
2071.27822	0.42814
2069.34966	0.42579
2067.42109	0.42364
2065.49253	0.42155
2063.56396	0.41915
2061.63540	0.41652
2059.70684	0.41395
2057.77827	0.41145
2055.84971	0.40892
2053.92114	0.40631
2051.99258	0.40365
2050.06401	0.40095
2048.13545	0.39824
2046.20688	0.39556
2044.27832	0.39299
2042.34976	0.39052
2040.42119	0.38786
2038.49263	0.38486
2036.56406	0.38186
2034.63550	0.37902
2032.70693	0.37623
2030.77837	0.37348
2028.84980	0.37079
2026.92124	0.36805
2024.99268	0.36519
2023.06411	0.36230
2021.13555	0.35960
2019.20698	0.35714
2017.27842	0.35463
2015.34985	0.35171
2013.42129	0.34859
2011.49272	0.34557
2009.56416	0.34267
2007.63560	0.33996
2005.70703	0.33728
2003.77847	0.33442
2001.84990	0.33164
1999.92134	0.32906
1997.99277	0.32649
1996.06421	0.32397
1994.13564	0.32181
1992.20708	0.31974
1990.27852	0.31710
1988.34995	0.31408
1986.42139	0.31120
1984.49282	0.30852
1982.56426	0.30607
1980.63569	0.30375
1978.70713	0.30151
1976.77856	0.29931
1974.85000	0.29708
1972.92144	0.29489
1970.99287	0.29292
1969.06431	0.29118
1967.13574	0.28937
1965.20718	0.28709
1963.27861	0.28465
1961.35005	0.28246
1959.42148	0.28042
1957.49292	0.27848
1955.56436	0.27671
1953.63579	0.27495
1951.70723	0.27312
1949.77866	0.27140
1947.85010	0.26993
1945.92153	0.26876
1943.99297	0.26785
1942.06440	0.26662
1940.13584	0.26449
1938.20728	0.26228
1936.27871	0.26066
1934.35015	0.25937
1932.42158	0.25820
1930.49302	0.25703
1928.56445	0.25580
1926.63589	0.25475
1924.70732	0.25429
1922.77876	0.25400
1920.85020	0.25311
1918.92163	0.25214
1916.99307	0.25110
1915.06450	0.24944
1913.13594	0.24806
1911.20737	0.24758
1909.27881	0.24737
1907.35024	0.24673
1905.42168	0.24569
1903.49312	0.24470
1901.56455	0.24393
1899.63599	0.24331
1897.70742	0.24298
1895.77886	0.24291
1893.85029	0.24265
1891.92173	0.24231
1889.99316	0.24251
1888.06460	0.24245
1886.13604	0.24169
1884.20747	0.24098
1882.27891	0.24052
1880.35034	0.24026
1878.42178	0.24015
1876.49321	0.24009
1874.56465	0.24004
1872.63608	0.24041
1870.70752	0.24179
1868.77896	0.24380
1866.85039	0.24405
1864.92183	0.24252
1862.99326	0.24146
1861.06470	0.24138
1859.13613	0.24176
1857.20757	0.24209
1855.27900	0.24236
1853.35044	0.24270
1851.42187	0.24328
1849.49331	0.24427
1847.56475	0.24578
1845.63618	0.24771
1843.70762	0.24923
1841.77905	0.24904
1839.85049	0.24839
1837.92192	0.24886
1835.99336	0.24978
1834.06479	0.25067
1832.13623	0.25228
1830.20767	0.25503
1828.27910	0.25693
1826.35054	0.25733
1824.42197	0.25800
1822.49341	0.25865
1820.56484	0.25931
1818.63628	0.26048
1816.70771	0.26201
1814.77915	0.26365
1812.85059	0.26587
1810.92202	0.26859
1808.99346	0.27068
1807.06489	0.27210
1805.13633	0.27375
1803.20776	0.27639
1801.27920	0.27976
1799.35063	0.28283
1797.42207	0.28508
1795.49351	0.28764
1793.56494	0.29147
1791.63638	0.29584
1789.70781	0.29811
1787.77925	0.29918
1785.85068	0.30179
1783.92212	0.30577
1781.99355	0.31019
1780.06499	0.31469
1778.13643	0.31888
1776.20786	0.32319
1774.27930	0.32888
1772.35073	0.33652
1770.42217	0.34278
1768.49360	0.34638
1766.56504	0.35004
1764.63647	0.35473
1762.70791	0.36105
1760.77935	0.36909
1758.85078	0.37608
1756.92222	0.38306
1754.99365	0.39063
1753.06509	0.39784
1751.13652	0.40751
1749.20796	0.41974
1747.27939	0.43019
1745.35083	0.43832
1743.42227	0.44717
1741.49370	0.45743
1739.56514	0.46982
1737.63657	0.48226
1735.70801	0.49372
1733.77944	0.51150
1731.85088	0.53094
1729.92231	0.54466
1727.99375	0.55891
1726.06519	0.57513
1724.13662	0.59388
1722.20806	0.61447
1720.27949	0.63378
1718.35093	0.65746
1716.42236	0.69214
1714.49380	0.72213
1712.56523	0.74448
1710.63667	0.76687
1708.70811	0.79230
1706.77954	0.82232
1704.85098	0.85840
1702.92241	0.88990
1700.99385	0.92078
1699.06528	0.96798
1697.13672	1.01103
1695.20815	1.05272
1693.27959	1.09205
1691.35103	1.12447
1689.42246	1.16373
1687.49390	1.20563
1685.56533	1.24609
1683.63677	1.30964
1681.70820	1.37397
1679.77964	1.41245
1677.85107	1.44994
1675.92251	1.49430
1673.99395	1.55015
1672.06538	1.59971
1670.13682	1.64823
1668.20825	1.71177
1666.27969	1.76181
1664.35112	1.80536
1662.42256	1.86309
1660.49399	1.92938
1658.56543	1.97964
1656.63687	2.02004
1654.70830	2.05711
1652.77974	2.11654
1650.85117	2.17433
1648.92261	2.19496
1646.99404	2.22438
1645.06548	2.25284
1643.13691	2.26816
1641.20835	2.27786
1639.27979	2.28865
1637.35122	2.29479
1635.42266	2.29282
1633.49409	2.28320
1631.56553	2.26926
1629.63696	2.25381
1627.70840	2.22679
1625.77983	2.19442
1623.85127	2.15352
1621.92271	2.10425
1619.99414	2.06103
1618.06558	2.01929
1616.13701	1.95765
1614.20845	1.89148
1612.27988	1.84019
1610.35132	1.78840
1608.42275	1.73334
1606.49419	1.67801
1604.56562	1.62666
1602.63706	1.57772
1600.70850	1.53027
1598.77993	1.48687
1596.85137	1.44680
1594.92280	1.40803
1592.99424	1.36972
1591.06567	1.33419
1589.13711	1.30127
1587.20854	1.27122
1585.27998	1.24362
1583.35142	1.21778
1581.42285	1.19465
1579.49429	1.17590
1577.56572	1.16016
1575.63716	1.13984
1573.70859	1.12002
1571.78003	1.10763
1569.85146	1.09649
1567.92290	1.08342
1565.99434	1.07302
1564.06577	1.06589
1562.13721	1.06131
1560.20864	1.06033
1558.28008	1.06131
1556.35151	1.05858
1554.42295	1.05494
1552.49438	1.05199
1550.56582	1.04839
1548.63726	1.04289
1546.70869	1.03670
1544.78013	1.03019
1542.85156	1.02212
1540.92300	1.00808
1538.99443	0.98030
1537.06587	0.95859
1535.13730	0.94537
1533.20874	0.92856
1531.28018	0.90973
1529.35161	0.89643
1527.42305	0.88506
1525.49448	0.87354
1523.56592	0.86401
1521.63735	0.85488
1519.70879	0.84368
1517.78022	0.83356
1515.85166	0.82220
1513.92310	0.81039
1511.99453	0.80119
1510.06597	0.79451
1508.13740	0.78947
1506.20884	0.77721
1504.28027	0.76223
1502.35171	0.75402
1500.42314	0.74860
1498.49458	0.74385
1496.56602	0.73750
1494.63745	0.72974
1492.70889	0.72400
1490.78032	0.72044
1488.85176	0.71611
1486.92319	0.70976
1484.99463	0.70390
1483.06606	0.69974
1481.13750	0.69670
1479.20894	0.69437
1477.28037	0.69343
1475.35181	0.69414
1473.42324	0.69519
1471.49468	0.69301
1469.56611	0.68825
1467.63755	0.68483
1465.70898	0.68328
1463.78042	0.68187
1461.85186	0.68033
1459.92329	0.68074
1457.99473	0.68327
1456.06616	0.68294
1454.13760	0.67815
1452.20903	0.67423
1450.28047	0.67156
1448.35190	0.66940
1446.42334	0.66678
1444.49478	0.66394
1442.56621	0.66155
1440.63765	0.65957
1438.70908	0.65810
1436.78052	0.65644
1434.85195	0.65329
1432.92339	0.65019
1430.99482	0.64856
1429.06626	0.64769
1427.13770	0.64688
1425.20913	0.64681
1423.28057	0.64746
1421.35200	0.64811
1419.42344	0.64910
1417.49487	0.64890
1415.56631	0.64648
1413.63774	0.64452
1411.70918	0.64401
1409.78062	0.64430
1407.85205	0.64495
1405.92349	0.64613
1403.99492	0.64713
1402.06636	0.64716
1400.13779	0.64692
1398.20923	0.64634
1396.28066	0.64446
1394.35210	0.64076
1392.42354	0.63598
1390.49497	0.63204
1388.56641	0.62904
1386.63784	0.62528
1384.70928	0.62030
1382.78071	0.61558
1380.85215	0.61167
1378.92358	0.60852
1376.99502	0.60638
1375.06646	0.60532
1373.13789	0.60421
1371.20933	0.60263
1369.28076	0.60147
1367.35220	0.60046
1365.42363	0.59927
1363.49507	0.59837
1361.56650	0.59722
1359.63794	0.59529
1357.70937	0.59348
1355.78081	0.59219
1353.85225	0.59103
1351.92368	0.58991
1349.99512	0.58908
1348.06655	0.58844
1346.13799	0.58774
1344.20942	0.58696
1342.28086	0.58649
1340.35229	0.58653
1338.42373	0.58626
1336.49517	0.58516
1334.56660	0.58407
1332.63804	0.58349
1330.70947	0.58326
1328.78091	0.58320
1326.85234	0.58331
1324.92378	0.58363
1322.99521	0.58414
1321.06665	0.58483
1319.13809	0.58540
1317.20952	0.58545
1315.28096	0.58506
1313.35239	0.58444
1311.42383	0.58355
1309.49526	0.58267
1307.56670	0.58211
1305.63813	0.58166
1303.70957	0.58101
1301.78101	0.58012
1299.85244	0.57916
1297.92388	0.57818
1295.99531	0.57705
1294.06675	0.57580
1292.13818	0.57460
1290.20962	0.57352
1288.28105	0.57242
1286.35249	0.57112
1284.42393	0.56978
1282.49536	0.56865
1280.56680	0.56770
1278.63823	0.56668
1276.70967	0.56557
1274.78110	0.56466
1272.85254	0.56406
1270.92397	0.56351
1268.99541	0.56284
1267.06685	0.56207
1265.13828	0.56123
1263.20972	0.56042
1261.28115	0.55973
1259.35259	0.55902
1257.42402	0.55836
1255.49546	0.55805
1253.56689	0.55810
1251.63833	0.55829
1249.70977	0.55842
1247.78120	0.55838
1245.85264	0.55819
1243.92407	0.55787
1241.99551	0.55724
1240.06694	0.55617
1238.13838	0.55471
1236.20981	0.55299
1234.28125	0.55115
1232.35269	0.54931
1230.42412	0.54743
1228.49556	0.54557
1226.56699	0.54395
1224.63843	0.54255
1222.70986	0.54122
1220.78130	0.54002
1218.85273	0.53892
1216.92417	0.53777
1214.99561	0.53669
1213.06704	0.53585
1211.13848	0.53522
1209.20991	0.53462
1207.28135	0.53387
1205.35278	0.53304
1203.42422	0.53219
1201.49565	0.53126
1199.56709	0.53033
1197.63853	0.52955
1195.70996	0.52898
1193.78140	0.52846
1191.85283	0.52785
1189.92427	0.52731
1187.99570	0.52690
1186.06714	0.52642
1184.13857	0.52602
1182.21001	0.52611
1180.28145	0.52673
1178.35288	0.52764
1176.42432	0.52872
1174.49575	0.52975
1172.56719	0.53037
1170.63862	0.53056
1168.71006	0.53057
1166.78149	0.53048
1164.85293	0.53028
1162.92437	0.53010
1160.99580	0.52982
1159.06724	0.52927
1157.13867	0.52853
1155.21011	0.52754
1153.28154	0.52617
1151.35298	0.52445
1149.42441	0.52240
1147.49585	0.52002
1145.56729	0.51741
1143.63872	0.51480
1141.71016	0.51249
1139.78159	0.51059
1137.85303	0.50904
1135.92446	0.50764
1133.99590	0.50638
1132.06733	0.50554
1130.13877	0.50491
1128.21021	0.50405
1126.28164	0.50309
1124.35308	0.50217
1122.42451	0.50135
1120.49595	0.50082
1118.56738	0.50053
1116.63882	0.50040
1114.71025	0.50054
1112.78169	0.50092
1110.85312	0.50135
1108.92456	0.50206
1106.99600	0.50318
1105.06743	0.50450
1103.13887	0.50597
1101.21030	0.50753
1099.28174	0.50923
1097.35317	0.51139
1095.42461	0.51414
1093.49604	0.51769
1091.56748	0.52219
1089.63892	0.52734
1087.71035	0.53291
1085.78179	0.53911
1083.85322	0.54587
1081.92466	0.55242
1079.99609	0.55765
1078.06753	0.56061
1076.13896	0.56102
1074.21040	0.55894
1072.28184	0.55463
1070.35327	0.54881
1068.42471	0.54231
1066.49614	0.53571
1064.56758	0.52944
1062.63901	0.52380
1060.71045	0.51881
1058.78188	0.51433
1056.85332	0.51018
1054.92476	0.50635
1052.99619	0.50314
1051.06763	0.50068
1049.13906	0.49887
1047.21050	0.49732
1045.28193	0.49560
1043.35337	0.49379
1041.42480	0.49236
1039.49624	0.49153
1037.56768	0.49112
1035.63911	0.49094
1033.71055	0.49073
1031.78198	0.49028
1029.85342	0.48965
1027.92485	0.48896
1025.99629	0.48845
1024.06772	0.48850
1022.13916	0.48904
1020.21060	0.48966
1018.28203	0.49021
1016.35347	0.49084
1014.42490	0.49160
1012.49634	0.49238
1010.56777	0.49321
1008.63921	0.49428
1006.71064	0.49562
1004.78208	0.49735
1002.85352	0.49965
1000.92495	0.50251
998.99639	0.50584
997.06782	0.50960
995.13926	0.51368
993.21069	0.51767
991.28213	0.52106
989.35356	0.52341
987.42500	0.52474
985.49644	0.52555
983.56787	0.52606
981.63931	0.52656
979.71074	0.52767
977.78218	0.52952
975.85361	0.53192
973.92505	0.53476
971.99648	0.53789
970.06792	0.54112
968.13936	0.54451
966.21079	0.54834
964.28223	0.55275
962.35366	0.55762
960.42510	0.56270
958.49653	0.56798
956.56797	0.57358
954.63940	0.57960
952.71084	0.58593
950.78228	0.59213
948.85371	0.59818
946.92515	0.60448
944.99658	0.61124
943.06802	0.61828
941.13945	0.62457
939.21089	0.62968
937.28232	0.63458
935.35376	0.64006
933.42520	0.64599
931.49663	0.65179
929.56807	0.65710
927.63950	0.66229
925.71094	0.66830
923.78237	0.67508
921.85381	0.68166
919.92524	0.68791
917.99668	0.69423
916.06812	0.70116
914.13955	0.70900
912.21099	0.71705
910.28242	0.72474
908.35386	0.73291
906.42529	0.74247
904.49673	0.75231
902.56816	0.76083
900.63960	0.76884
898.71104	0.77759
896.78247	0.78696
894.85391	0.79672
892.92534	0.80673
890.99678	0.81780
889.06821	0.83035
887.13965	0.84230
885.21108	0.85261
883.28252	0.86368
881.35396	0.87643
879.42539	0.88814
877.49683	0.89772
875.56826	0.90800
873.63970	0.92081
871.71113	0.93425
869.78257	0.94599
867.85400	0.95605
865.92544	0.96581
863.99687	0.97678
862.06831	0.98905
860.13975	1.00090
858.21118	1.01248
856.28262	1.02474
854.35405	1.03651
852.42549	1.04850
850.49692	1.06116
848.56836	1.07180
846.63979	1.08196
844.71123	1.09480
842.78267	1.10896
840.85410	1.12224
838.92554	1.13159
836.99697	1.13792
835.06841	1.14694
833.13984	1.15749
831.21128	1.16508
829.28271	1.17253
827.35415	1.18184
825.42559	1.19047
823.49702	1.20150
821.56846	1.21529
819.63989	1.22668
817.71133	1.23865
815.78276	1.24933
813.85420	1.24589
811.92563	1.24305
809.99707	1.26933
808.06851	1.31474
806.13994	1.34806
804.21138	1.36407
802.28281	1.37431
800.35425	1.37820
798.42568	1.36562
796.49712	1.33881
794.56855	1.32811
792.63999	1.35298
790.71143	1.37255
788.78286	1.35155
786.85430	1.31281
784.92573	1.28469
782.99717	1.30057
781.06860	1.37611
779.14004	1.43041
777.21147	1.38501
775.28291	1.35113
773.35435	1.39127
771.42578	1.44457
769.49722	1.42632
767.56865	1.36247
765.64009	1.27215
763.71152	1.18713
761.78296	1.15949
759.85439	1.20175
757.92583	1.29353
755.99727	1.33194
754.06870	1.20611
752.14014	1.06353
750.21157	1.02617
748.28301	1.06635
746.35444	1.10236
744.42588	1.15996
742.49731	1.19619
740.56875	1.03086
738.64019	0.84164
736.71162	0.72263
734.78306	0.68556
732.85449	0.82278
730.92593	2.05150
728.99736	1.59102
727.06880	0.64931
725.14023	0.45152
723.21167	0.41348
721.28311	0.29350
719.35454	0.12449
717.42598	0.06022
715.49741	0.06919
713.56885	0.05725
711.64028	-0.09043
709.71172	-0.34978
707.78315	-0.73786
705.85459	-0.64960
703.92603	0.10382
701.99746	0.48623
700.06890	0.27276
698.14033	0.09125
696.21177	0.08780
694.28320	0.21729
692.35464	0.44143
690.42607	0.57646
688.49751	0.49998
686.56895	0.37898
684.64038	0.31889
682.71182	0.39256
680.78325	0.46446
678.85469	0.36913
676.92612	0.28859
674.99756	0.25390
673.06899	0.24383
671.14043	0.34243
669.21187	0.52601
667.28330	0.42605
665.35474	0.25434
663.42617	0.20637
661.49761	0.26060
659.56904	0.33624
657.64048	0.28737
655.71191	0.24101
653.78335	0.31168
651.85479	0.46002
649.92622	0.38171
647.99766	0.24964
646.06909	0.23695
644.14053	0.26996
642.21196	0.29277
640.28340	0.32069
638.35483	0.37795
636.42627	0.38425
634.49771	0.30071
632.56914	0.21963
630.64058	0.20773
628.71201	0.28902
626.78345	0.24400
624.85488	0.12129
622.92632	0.13388
620.99775	0.24255
619.06919	0.28853
617.14062	0.30449
615.21206	0.37072
613.28350	0.40866
611.35493	0.39905
609.42637	0.33915
607.49780	0.27919
605.56924	0.33963
603.64067	0.52701
601.71211	0.85707
599.78354	3.59870
597.85498	0.76541
595.92642	0.41911
593.99785	0.34195
592.06929	0.30155
590.14072	0.28213
588.21216	0.30553
586.28359	0.29907
584.35503	0.24576
582.42646	0.24289
580.49790	0.36956
578.56934	0.51556
576.64077	0.40318
574.71221	0.28170
572.78364	0.28232
570.85508	0.38208
568.92651	0.43913
566.99795	0.39804
565.06938	0.37314
563.14082	0.31397
561.21226	0.24067
559.28369	0.21333
557.35513	0.17452
555.42656	0.12197
553.49800	0.13283
551.56943	0.25757
549.64087	0.36101
547.71230	0.26866
545.78374	0.22904
543.85518	0.26830
541.92661	0.32060
539.99805	0.39735
538.06948	0.45649
536.14092	0.40727
534.21235	0.31521
532.28379	0.27439
530.35522	0.24893
528.42666	0.22526
526.49810	0.24963
524.56953	0.27057
522.64097	0.23190
520.71240	0.22291
518.78384	0.20743
516.85527	0.18148
514.92671	0.24020
512.99814	0.42664
511.06958	0.46822
509.14102	0.18952
507.21245	0.08477
505.28389	0.10710
503.35532	0.20080
501.42676	0.30296
499.49819	0.26390
