3997.91411	0.07013
3995.98555	0.07092
3994.05698	0.07168
3992.12842	0.07218
3990.19985	0.07257
3988.27129	0.07278
3986.34272	0.07281
3984.41416	0.07275
3982.48560	0.07267
3980.55703	0.07277
3978.62847	0.07310
3976.69990	0.07360
3974.77134	0.07400
3972.84277	0.07440
3970.91421	0.07507
3968.98564	0.07541
3967.05708	0.07508
3965.12852	0.07478
3963.19995	0.07496
3961.27139	0.07510
3959.34282	0.07497
3957.41426	0.07498
3955.48569	0.07523
3953.55713	0.07534
3951.62856	0.07512
3949.70000	0.07483
3947.77144	0.07474
3945.84287	0.07482
3943.91431	0.07492
3941.98574	0.07478
3940.05718	0.07458
3938.12861	0.07481
3936.20005	0.07510
3934.27148	0.07500
3932.34292	0.07493
3930.41436	0.07509
3928.48579	0.07505
3926.55723	0.07504
3924.62866	0.07531
3922.70010	0.07519
3920.77153	0.07481
3918.84297	0.07492
3916.91440	0.07548
3914.98584	0.07561
3913.05728	0.07493
3911.12871	0.07429
3909.20015	0.07416
3907.27158	0.07407
3905.34302	0.07385
3903.41445	0.07394
3901.48589	0.07438
3899.55732	0.07476
3897.62876	0.07497
3895.70020	0.07493
3893.77163	0.07477
3891.84307	0.07453
3889.91450	0.07423
3887.98594	0.07427
3886.05737	0.07466
3884.12881	0.07481
3882.20024	0.07477
3880.27168	0.07486
3878.34312	0.07472
3876.41455	0.07455
3874.48599	0.07486
3872.55742	0.07563
3870.62886	0.07673
3868.70029	0.07754
3866.77173	0.07722
3864.84316	0.07695
3862.91460	0.07752
3860.98604	0.07783
3859.05747	0.07752
3857.12891	0.07735
3855.20034	0.07784
3853.27178	0.07940
3851.34321	0.08063
3849.41465	0.08015
3847.48608	0.07970
3845.55752	0.07980
3843.62896	0.08045
3841.70039	0.08145
3839.77183	0.08257
3837.84326	0.08387
3835.91470	0.08466
3833.98613	0.08479
3832.05757	0.08516
3830.12900	0.08572
3828.20044	0.08607
3826.27187	0.08656
3824.34331	0.08713
3822.41475	0.08764
3820.48618	0.08891
3818.55762	0.09031
3816.62905	0.09113
3814.70049	0.09224
3812.77192	0.09294
3810.84336	0.09318
3808.91479	0.09378
3806.98623	0.09507
3805.05767	0.09678
3803.12910	0.09829
3801.20054	0.10001
3799.27197	0.10138
3797.34341	0.10165
3795.41484	0.10220
3793.48628	0.10313
3791.55771	0.10412
3789.62915	0.10549
3787.70059	0.10708
3785.77202	0.10866
3783.84346	0.11021
3781.91489	0.11174
3779.98633	0.11358
3778.05776	0.11563
3776.12920	0.11695
3774.20063	0.11787
3772.27207	0.11923
3770.34351	0.12132
3768.41494	0.12367
3766.48638	0.12542
3764.55781	0.12721
3762.62925	0.12925
3760.70068	0.13118
3758.77212	0.13325
3756.84355	0.13545
3754.91499	0.13758
3752.98643	0.14007
3751.05786	0.14366
3749.12930	0.14801
3747.20073	0.15065
3745.27217	0.15255
3743.34360	0.15638
3741.41504	0.16052
3739.48647	0.16298
3737.55791	0.16559
3735.62935	0.17009
3733.70078	0.17614
3731.77222	0.18100
3729.84365	0.18485
3727.91509	0.18890
3725.98652	0.19408
3724.05796	0.20090
3722.12939	0.20847
3720.20083	0.21602
3718.27227	0.22341
3716.34370	0.23097
3714.41514	0.23858
3712.48657	0.24743
3710.55801	0.26045
3708.62944	0.27509
3706.70088	0.28705
3704.77231	0.29840
3702.84375	0.31143
3700.91519	0.32840
3698.98662	0.34743
3697.05806	0.36515
3695.12949	0.38341
3693.20093	0.40275
3691.27236	0.42379
3689.34380	0.45189
3687.41523	0.48782
3685.48667	0.51925
3683.55811	0.54581
3681.62954	0.57371
3679.70098	0.60479
3677.77241	0.63731
3675.84385	0.67626
3673.91528	0.73128
3671.98672	0.77588
3670.05815	0.81396
3668.12959	0.86814
3666.20103	0.91816
3664.27246	0.95901
3662.34390	1.00220
3660.41533	1.04893
3658.48677	1.09516
3656.55820	1.14510
3654.62964	1.20168
3652.70107	1.24775
3650.77251	1.28553
3648.84395	1.33940
3646.91538	1.41031
3644.98682	1.46263
3643.05825	1.50214
3641.12969	1.54253
3639.20112	1.58705
3637.27256	1.63145
3635.34399	1.67394
3633.41543	1.71607
3631.48687	1.75577
3629.55830	1.79637
3627.62974	1.85078
3625.70117	1.90262
3623.77261	1.93730
3621.84404	1.96987
3619.91548	2.00727
3617.98691	2.05335
3616.05835	2.09768
3614.12979	2.13418
3612.20122	2.17338
3610.27266	2.21295
3608.34409	2.25143
3606.41553	2.29286
3604.48696	2.33332
3602.55840	2.37019
3600.62983	2.40896
3598.70127	2.44927
3596.77271	2.48734
3594.84414	2.52726
3592.91558	2.57030
3590.98701	2.60961
3589.05845	2.64456
3587.12988	2.68817
3585.20132	2.73863
3583.27275	2.77980
3581.34419	2.81718
3579.41562	2.85865
3577.48706	2.90171
3575.55850	2.94371
3573.62993	2.98679
3571.70137	3.02745
3569.77280	3.06351
3567.84424	3.10165
3565.91567	3.15425
3563.98711	3.21045
3562.05854	3.25506
3560.12998	3.29591
3558.20142	3.33969
3556.27285	3.38583
3554.34429	3.42988
3552.41572	3.47470
3550.48716	3.52102
3548.55859	3.56507
3546.63003	3.60778
3544.70146	3.65325
3542.77290	3.70255
3540.84434	3.75282
3538.91577	3.80240
3536.98721	3.85036
3535.05864	3.89793
3533.13008	3.94627
3531.20151	3.99529
3529.27295	4.04176
3527.34438	4.08786
3525.41582	4.13612
3523.48726	4.18222
3521.55869	4.22718
3519.63013	4.27477
3517.70156	4.32639
3515.77300	4.37796
3513.84443	4.42607
3511.91587	4.47099
3509.98730	4.51464
3508.05874	4.56182
3506.13018	4.61151
3504.20161	4.65856
3502.27305	4.70650
3500.34448	4.75644
3498.41592	4.80352
3496.48735	4.85168
3494.55879	4.90061
3492.63022	4.94906
3490.70166	5.00033
3488.77310	5.04679
3486.84453	5.08276
3484.91597	5.12121
3482.98740	5.17567
3481.05884	5.23396
3479.13027	5.27732
3477.20171	5.31952
3475.27314	5.37262
3473.34458	5.42648
3471.41602	5.47691
3469.48745	5.52618
3467.55889	5.57343
3465.63032	5.61833
3463.70176	5.66044
3461.77319	5.70343
3459.84463	5.75685
3457.91606	5.81491
3455.98750	5.87362
3454.05894	5.93070
3452.13037	5.97259
3450.20181	6.00413
3448.27324	6.05144
3446.34468	6.12641
3444.41611	6.19338
3442.48755	6.23543
3440.55898	6.27875
3438.63042	6.33875
3436.70186	6.39209
3434.77329	6.41946
3432.84473	6.45165
3430.91616	6.50018
3428.98760	6.54891
3427.05903	6.60189
3425.13047	6.67337
3423.20190	6.74410
3421.27334	6.79539
3419.34478	6.83584
3417.41621	6.88276
3415.48765	6.92618
3413.55908	6.94784
3411.63052	6.98024
3409.70195	7.01755
3407.77339	7.03541
3405.84482	7.06506
3403.91626	7.11720
3401.98770	7.13308
3400.05913	7.12887
3398.13057	7.18115
3396.20200	7.27587
3394.27344	7.34863
3392.34487	7.35853
3390.41631	7.34611
3388.48774	7.35754
3386.55918	7.40128
3384.63062	7.44509
3382.70205	7.47898
3380.77349	7.53917
3378.84492	7.60025
3376.91636	7.60081
3374.98779	7.54805
3373.05923	7.55378
3371.13066	7.63569
3369.20210	7.70057
3367.27354	7.75064
3365.34497	7.85464
3363.41641	7.93624
3361.48784	7.93026
3359.55928	7.92568
3357.63071	7.93615
3355.70215	7.96128
3353.77358	8.00138
3351.84502	7.98617
3349.91646	7.89884
3347.98789	7.89446
3346.05933	8.03693
3344.13076	8.17325
3342.20220	8.17379
3340.27363	8.08982
3338.34507	8.00029
3336.41650	7.93509
3334.48794	7.91677
3332.55937	7.87785
3330.63081	7.87946
3328.70225	7.97937
3326.77368	8.02390
3324.84512	8.00287
3322.91655	8.03573
3320.98799	8.09902
3319.05942	8.11819
3317.13086	8.14528
3315.20229	8.18594
3313.27373	8.18696
3311.34517	8.12559
3309.41660	8.05142
3307.48804	8.04300
3305.55947	8.05405
3303.63091	8.04685
3301.70234	8.05599
3299.77378	8.07922
3297.84521	8.10913
3295.91665	8.21806
3293.98809	8.30229
3292.05952	8.23328
3290.13096	8.13547
3288.20239	8.05562
3286.27383	7.99953
3284.34526	7.99069
3282.41670	8.06678
3280.48813	8.17091
3278.55957	8.18969
3276.63101	8.19029
3274.70244	8.24031
3272.77388	8.24177
3270.84531	8.14734
3268.91675	8.05629
3266.98818	7.98501
3265.05962	7.93318
3263.13105	7.95486
3261.20249	8.04098
3259.27393	8.10573
3257.34536	8.11623
3255.41680	8.10579
3253.48823	8.09394
3251.55967	8.07028
3249.63110	8.05293
3247.70254	8.03870
3245.77397	7.96743
3243.84541	7.91660
3241.91685	7.93996
3239.98828	7.95579
3238.05972	7.94764
3236.13115	7.94871
3234.20259	7.97403
3232.27402	8.01959
3230.34546	8.04695
3228.41689	8.03488
3226.48833	7.98092
3224.55977	7.88979
3222.63120	7.81647
3220.70264	7.82264
3218.77407	7.86077
3216.84551	7.83218
3214.91694	7.82763
3212.98838	7.93313
3211.05981	8.01909
3209.13125	7.97740
3207.20269	7.87072
3205.27412	7.75404
3203.34556	7.64434
3201.41699	7.58141
3199.48843	7.56603
3197.55986	7.55013
3195.63130	7.50694
3193.70273	7.48001
3191.77417	7.50291
3189.84561	7.51191
3187.91704	7.46006
3185.98848	7.39587
3184.05991	7.36136
3182.13135	7.32698
3180.20278	7.27436
3178.27422	7.22483
3176.34565	7.16513
3174.41709	7.07951
3172.48853	7.00059
3170.55996	6.96276
3168.63140	6.93401
3166.70283	6.87269
3164.77427	6.81240
3162.84570	6.74519
3160.91714	6.64526
3158.98857	6.57864
3157.06001	6.55778
3155.13145	6.52332
3153.20288	6.46367
3151.27432	6.39946
3149.34575	6.33668
3147.41719	6.27114
3145.48862	6.19649
3143.56006	6.11119
3141.63149	6.03389
3139.70293	5.97271
3137.77437	5.91088
3135.84580	5.83900
3133.91724	5.76243
3131.98867	5.68864
3130.06011	5.62133
3128.13154	5.55976
3126.20298	5.49958
3124.27441	5.43191
3122.34585	5.35411
3120.41729	5.27867
3118.48872	5.20786
3116.56016	5.13344
3114.63159	5.05943
3112.70303	4.98923
3110.77446	4.91759
3108.84590	4.84845
3106.91733	4.78461
3104.98877	4.71594
3103.06021	4.64381
3101.13164	4.57752
3099.20308	4.51538
3097.27451	4.45271
3095.34595	4.38977
3093.41738	4.32522
3091.48882	4.25780
3089.56025	4.19150
3087.63169	4.12776
3085.70312	4.06748
3083.77456	4.01092
3081.84600	3.95229
3079.91743	3.88769
3077.98887	3.82149
3076.06030	3.76076
3074.13174	3.70593
3072.20317	3.65117
3070.27461	3.59411
3068.34604	3.53742
3066.41748	3.48119
3064.48892	3.42409
3062.56035	3.36763
3060.63179	3.31389
3058.70322	3.26245
3056.77466	3.21109
3054.84609	3.15960
3052.91753	3.10865
3050.98896	3.05787
3049.06040	3.00682
3047.13184	2.95545
3045.20327	2.90511
3043.27471	2.85651
3041.34614	2.80884
3039.41758	2.76227
3037.48901	2.71681
3035.56045	2.67135
3033.63188	2.62594
3031.70332	2.58135
3029.77476	2.53724
3027.84619	2.49312
3025.91763	2.44925
3023.98906	2.40675
3022.06050	2.36601
3020.13193	2.32639
3018.20337	2.28718
3016.27480	2.24740
3014.34624	2.20736
3012.41768	2.16835
3010.48911	2.13054
3008.56055	2.09391
3006.63198	2.05864
3004.70342	2.02358
3002.77485	1.98785
3000.84629	1.95270
2998.91772	1.91915
2996.98916	1.88669
2995.06060	1.85442
2993.13203	1.82182
2991.20347	1.78968
2989.27490	1.75909
2987.34634	1.72962
2985.41777	1.70009
2983.48921	1.67046
2981.56064	1.64162
2979.63208	1.61382
2977.70352	1.58662
2975.77495	1.55968
2973.84639	1.53307
2971.91782	1.50692
2969.98926	1.48100
2968.06069	1.45524
2966.13213	1.42989
2964.20356	1.40497
2962.27500	1.38060
2960.34644	1.35692
2958.41787	1.33329
2956.48931	1.30904
2954.56074	1.28470
2952.63218	1.26085
2950.70361	1.23760
2948.77505	1.21510
2946.84648	1.19298
2944.91792	1.17094
2942.98936	1.14908
2941.06079	1.12735
2939.13223	1.10615
2937.20366	1.08567
2935.27510	1.06545
2933.34653	1.04566
2931.41797	1.02621
2929.48940	1.00664
2927.56084	0.98743
2925.63228	0.96958
2923.70371	0.95313
2921.77515	0.93664
2919.84658	0.91938
2917.91802	0.90199
2915.98945	0.88481
2914.06089	0.86838
2912.13232	0.85321
2910.20376	0.83893
2908.27520	0.82508
2906.34663	0.81137
2904.41807	0.79753
2902.48950	0.78378
2900.56094	0.77051
2898.63237	0.75757
2896.70381	0.74482
2894.77524	0.73242
2892.84668	0.72031
2890.91812	0.70842
2888.98955	0.69717
2887.06099	0.68655
2885.13242	0.67602
2883.20386	0.66553
2881.27529	0.65520
2879.34673	0.64492
2877.41816	0.63472
2875.48960	0.62457
2873.56104	0.61428
2871.63247	0.60386
2869.70391	0.59314
2867.77534	0.58207
2865.84678	0.57084
2863.91821	0.55961
2861.98965	0.54876
2860.06108	0.53871
2858.13252	0.52933
2856.20396	0.52017
2854.27539	0.51087
2852.34683	0.50182
2850.41826	0.49361
2848.48970	0.48597
2846.56113	0.47857
2844.63257	0.47167
2842.70400	0.46547
2840.77544	0.45967
2838.84687	0.45377
2836.91831	0.44777
2834.98975	0.44193
2833.06118	0.43622
2831.13262	0.43051
2829.20405	0.42483
2827.27549	0.41924
2825.34692	0.41375
2823.41836	0.40820
2821.48979	0.40237
2819.56123	0.39639
2817.63267	0.39059
2815.70410	0.38496
2813.77554	0.37940
2811.84697	0.37398
2809.91841	0.36868
2807.98984	0.36341
2806.06128	0.35829
2804.13271	0.35334
2802.20415	0.34839
2800.27559	0.34334
2798.34702	0.33834
2796.41846	0.33366
2794.48989	0.32927
2792.56133	0.32493
2790.63276	0.32057
2788.70420	0.31614
2786.77563	0.31172
2784.84707	0.30747
2782.91851	0.30321
2780.98994	0.29883
2779.06138	0.29467
2777.13281	0.29093
2775.20425	0.28731
2773.27568	0.28367
2771.34712	0.28017
2769.41855	0.27674
2767.48999	0.27323
2765.56143	0.26972
2763.63286	0.26635
2761.70430	0.26314
2759.77573	0.25992
2757.84717	0.25662
2755.91860	0.25341
2753.99004	0.25036
2752.06147	0.24738
2750.13291	0.24449
2748.20435	0.24173
2746.27578	0.23909
2744.34722	0.23656
2742.41865	0.23391
2740.49009	0.23106
2738.56152	0.22831
2736.63296	0.22588
2734.70439	0.22357
2732.77583	0.22116
2730.84727	0.21869
2728.91870	0.21627
2726.99014	0.21408
2725.06157	0.21212
2723.13301	0.21016
2721.20444	0.20802
2719.27588	0.20586
2717.34731	0.20400
2715.41875	0.20230
2713.49019	0.20050
2711.56162	0.19869
2709.63306	0.19688
2707.70449	0.19506
2705.77593	0.19334
2703.84736	0.19175
2701.91880	0.19017
2699.99023	0.18859
2698.06167	0.18714
2696.13311	0.18586
2694.20454	0.18467
2692.27598	0.18334
2690.34741	0.18195
2688.41885	0.18081
2686.49028	0.17976
2684.56172	0.17864
2682.63315	0.17751
2680.70459	0.17632
2678.77603	0.17506
2676.84746	0.17395
2674.91890	0.17303
2672.99033	0.17206
2671.06177	0.17099
2669.13320	0.16989
2667.20464	0.16873
2665.27607	0.16761
2663.34751	0.16669
2661.41895	0.16600
2659.49038	0.16543
2657.56182	0.16482
2655.63325	0.16405
2653.70469	0.16328
2651.77612	0.16269
2649.84756	0.16213
2647.91899	0.16147
2645.99043	0.16084
2644.06187	0.16031
2642.13330	0.15976
2640.20474	0.15917
2638.27617	0.15860
2636.34761	0.15811
2634.41904	0.15767
2632.49048	0.15731
2630.56191	0.15701
2628.63335	0.15677
2626.70479	0.15658
2624.77622	0.15632
2622.84766	0.15600
2620.91909	0.15579
2618.99053	0.15566
2617.06196	0.15550
2615.13340	0.15523
2613.20483	0.15491
2611.27627	0.15470
2609.34771	0.15456
2607.41914	0.15446
2605.49058	0.15447
2603.56201	0.15456
2601.63345	0.15466
2599.70488	0.15469
2597.77632	0.15458
2595.84775	0.15453
2593.91919	0.15464
2591.99062	0.15483
2590.06206	0.15509
2588.13350	0.15536
2586.20493	0.15550
2584.27637	0.15564
2582.34780	0.15586
2580.41924	0.15608
2578.49067	0.15632
2576.56211	0.15653
2574.63354	0.15671
2572.70498	0.15696
2570.77642	0.15720
2568.84785	0.15746
2566.91929	0.15791
2564.99072	0.15848
2563.06216	0.15903
2561.13359	0.15953
2559.20503	0.16000
2557.27646	0.16044
2555.34790	0.16083
2553.41934	0.16127
2551.49077	0.16184
2549.56221	0.16237
2547.63364	0.16282
2545.70508	0.16342
2543.77651	0.16418
2541.84795	0.16487
2539.91938	0.16547
2537.99082	0.16606
2536.06226	0.16667
2534.13369	0.16731
2532.20513	0.16800
2530.27656	0.16875
2528.34800	0.16950
2526.41943	0.17020
2524.49087	0.17093
2522.56230	0.17164
2520.63374	0.17232
2518.70518	0.17310
2516.77661	0.17390
2514.84805	0.17458
2512.91948	0.17527
2510.99092	0.17605
2509.06235	0.17686
2507.13379	0.17767
2505.20522	0.17858
2503.27666	0.17956
2501.34810	0.18045
2499.41953	0.18128
2497.49097	0.18214
2495.56240	0.18309
2493.63384	0.18399
2491.70527	0.18473
2489.77671	0.18550
2487.84814	0.18638
2485.91958	0.18725
2483.99102	0.18821
2482.06245	0.18933
2480.13389	0.19035
2478.20532	0.19114
2476.27676	0.19182
2474.34819	0.19261
2472.41963	0.19352
2470.49106	0.19443
2468.56250	0.19535
2466.63394	0.19634
2464.70537	0.19730
2462.77681	0.19827
2460.84824	0.19929
2458.91968	0.20032
2456.99111	0.20130
2455.06255	0.20218
2453.13398	0.20302
2451.20542	0.20391
2449.27686	0.20496
2447.34829	0.20606
2445.41973	0.20698
2443.49116	0.20784
2441.56260	0.20886
2439.63403	0.20996
2437.70547	0.21100
2435.77690	0.21197
2433.84834	0.21290
2431.91978	0.21387
2429.99121	0.21495
2428.06265	0.21617
2426.13408	0.21747
2424.20552	0.21865
2422.27695	0.21967
2420.34839	0.22068
2418.41982	0.22175
2416.49126	0.22286
2414.56270	0.22396
2412.63413	0.22505
2410.70557	0.22627
2408.77700	0.22759
2406.84844	0.22885
2404.91987	0.23000
2402.99131	0.23110
2401.06274	0.23231
2399.13418	0.23359
2397.20562	0.23474
2395.27705	0.23582
2393.34849	0.23707
2391.41992	0.23845
2389.49136	0.23977
2387.56279	0.24098
2385.63423	0.24212
2383.70566	0.24316
2381.77710	0.24406
2379.84854	0.24489
2377.91997	0.24574
2375.99141	0.24659
2374.06284	0.24734
2372.13428	0.24788
2370.20571	0.24868
2368.27715	0.24963
2366.34858	0.25034
2364.42002	0.25177
2362.49146	0.25351
2360.56289	0.25433
2358.63433	0.25556
2356.70576	0.25795
2354.77720	0.26050
2352.84863	0.26313
2350.92007	0.26566
2348.99150	0.26737
2347.06294	0.26812
2345.13437	0.26841
2343.20581	0.26904
2341.27725	0.27079
2339.34868	0.27321
2337.42012	0.27516
2335.49155	0.27678
2333.56299	0.27834
2331.63442	0.28003
2329.70586	0.28202
2327.77729	0.28401
2325.84873	0.28602
2323.92017	0.28817
2321.99160	0.29038
2320.06304	0.29247
2318.13447	0.29429
2316.20591	0.29587
2314.27734	0.29757
2312.34878	0.29957
2310.42021	0.30181
2308.49165	0.30406
2306.56309	0.30624
2304.63452	0.30826
2302.70596	0.31008
2300.77739	0.31184
2298.84883	0.31363
2296.92026	0.31545
2294.99170	0.31735
2293.06313	0.31938
2291.13457	0.32142
2289.20601	0.32352
2287.27744	0.32571
2285.34888	0.32778
2283.42031	0.32969
2281.49175	0.33166
2279.56318	0.33373
2277.63462	0.33567
2275.70605	0.33757
2273.77749	0.33961
2271.84893	0.34173
2269.92036	0.34386
2267.99180	0.34599
2266.06323	0.34811
2264.13467	0.35025
2262.20610	0.35242
2260.27754	0.35461
2258.34897	0.35680
2256.42041	0.35896
2254.49185	0.36117
2252.56328	0.36339
2250.63472	0.36553
2248.70615	0.36765
2246.77759	0.36981
2244.84902	0.37198
2242.92046	0.37423
2240.99189	0.37654
2239.06333	0.37885
2237.13477	0.38115
2235.20620	0.38340
2233.27764	0.38558
2231.34907	0.38779
2229.42051	0.39008
2227.49194	0.39236
2225.56338	0.39464
2223.63481	0.39691
2221.70625	0.39907
2219.77769	0.40123
2217.84912	0.40347
2215.92056	0.40570
2213.99199	0.40791
2212.06343	0.41019
2210.13486	0.41234
2208.20630	0.41422
2206.27773	0.41615
2204.34917	0.41830
2202.42061	0.42053
2200.49204	0.42263
2198.56348	0.42454
2196.63491	0.42642
2194.70635	0.42846
2192.77778	0.43062
2190.84922	0.43262
2188.92065	0.43439
2186.99209	0.43614
2185.06353	0.43796
2183.13496	0.43975
2181.20640	0.44149
2179.27783	0.44317
2177.34927	0.44474
2175.42070	0.44618
2173.49214	0.44771
2171.56357	0.44927
2169.63501	0.45071
2167.70645	0.45206
2165.77788	0.45336
2163.84932	0.45464
2161.92075	0.45596
2159.99219	0.45717
2158.06362	0.45808
2156.13506	0.45888
2154.20649	0.45978
2152.27793	0.46064
2150.34937	0.46136
2148.42080	0.46201
2146.49224	0.46266
2144.56367	0.46322
2142.63511	0.46365
2140.70654	0.46401
2138.77798	0.46429
2136.84941	0.46447
2134.92085	0.46462
2132.99229	0.46470
2131.06372	0.46470
2129.13516	0.46460
2127.20659	0.46442
2125.27803	0.46414
2123.34946	0.46368
2121.42090	0.46308
2119.49233	0.46240
2117.56377	0.46171
2115.63521	0.46098
2113.70664	0.46021
2111.77808	0.45941
2109.84951	0.45865
2107.92095	0.45788
2105.99238	0.45689
2104.06382	0.45564
2102.13525	0.45423
2100.20669	0.45278
2098.27812	0.45135
2096.34956	0.44986
2094.42100	0.44824
2092.49243	0.44662
2090.56387	0.44501
2088.63530	0.44323
2086.70674	0.44136
2084.77817	0.43954
2082.84961	0.43772
2080.92104	0.43576
2078.99248	0.43363
2077.06392	0.43155
2075.13535	0.42957
2073.20679	0.42748
2071.27822	0.42517
2069.34966	0.42285
2067.42109	0.42067
2065.49253	0.41855
2063.56396	0.41620
2061.63540	0.41361
2059.70684	0.41098
2057.77827	0.40850
2055.84971	0.40599
2053.92114	0.40330
2051.99258	0.40057
2050.06401	0.39789
2048.13545	0.39525
2046.20688	0.39268
2044.27832	0.39007
2042.34976	0.38726
2040.42119	0.38436
2038.49263	0.38157
2036.56406	0.37898
2034.63550	0.37640
2032.70693	0.37358
2030.77837	0.37070
2028.84980	0.36785
2026.92124	0.36501
2024.99268	0.36218
2023.06411	0.35937
2021.13555	0.35660
2019.20698	0.35390
2017.27842	0.35122
2015.34985	0.34846
2013.42129	0.34564
2011.49272	0.34282
2009.56416	0.34003
2007.63560	0.33729
2005.70703	0.33460
2003.77847	0.33192
2001.84990	0.32925
1999.92134	0.32653
1997.99277	0.32368
1996.06421	0.32096
1994.13564	0.31858
1992.20708	0.31626
1990.27852	0.31377
1988.34995	0.31125
1986.42139	0.30867
1984.49282	0.30607
1982.56426	0.30360
1980.63569	0.30130
1978.70713	0.29903
1976.77856	0.29671
1974.85000	0.29443
1972.92144	0.29225
1970.99287	0.29013
1969.06431	0.28803
1967.13574	0.28595
1965.20718	0.28385
1963.27861	0.28177
1961.35005	0.27976
1959.42148	0.27784
1957.49292	0.27598
1955.56436	0.27419
1953.63579	0.27248
1951.70723	0.27081
1949.77866	0.26908
1947.85010	0.26733
1945.92153	0.26573
1943.99297	0.26424
1942.06440	0.26275
1940.13584	0.26124
1938.20728	0.25978
1936.27871	0.25838
1934.35015	0.25701
1932.42158	0.25577
1930.49302	0.25457
1928.56445	0.25336
1926.63589	0.25218
1924.70732	0.25106
1922.77876	0.25006
1920.85020	0.24919
1918.92163	0.24831
1916.99307	0.24733
1915.06450	0.24635
1913.13594	0.24551
1911.20737	0.24483
1909.27881	0.24412
1907.35024	0.24331
1905.42168	0.24251
1903.49312	0.24186
1901.56455	0.24140
1899.63599	0.24101
1897.70742	0.24063
1895.77886	0.24028
1893.85029	0.23990
1891.92173	0.23940
1889.99316	0.23901
1888.06460	0.23870
1886.13604	0.23841
1884.20747	0.23818
1882.27891	0.23791
1880.35034	0.23768
1878.42178	0.23758
1876.49321	0.23769
1874.56465	0.23782
1872.63608	0.23789
1870.70752	0.23798
1868.77896	0.23829
1866.85039	0.23856
1864.92183	0.23856
1862.99326	0.23855
1861.06470	0.23871
1859.13613	0.23909
1857.20757	0.23953
1855.27900	0.23998
1853.35044	0.24041
1851.42187	0.24088
1849.49331	0.24143
1847.56475	0.24207
1845.63618	0.24285
1843.70762	0.24393
1841.77905	0.24487
1839.85049	0.24525
1837.92192	0.24579
1835.99336	0.24669
1834.06479	0.24764
1832.13623	0.24852
1830.20767	0.24986
1828.27910	0.25145
1826.35054	0.25259
1824.42197	0.25385
1822.49341	0.25512
1820.56484	0.25632
1818.63628	0.25772
1816.70771	0.25937
1814.77915	0.26094
1812.85059	0.26258
1810.92202	0.26454
1808.99346	0.26660
1807.06489	0.26854
1805.13633	0.27042
1803.20776	0.27254
1801.27920	0.27502
1799.35063	0.27787
1797.42207	0.28049
1795.49351	0.28290
1793.56494	0.28565
1791.63638	0.28930
1789.70781	0.29288
1787.77925	0.29549
1785.85068	0.29855
1783.92212	0.30226
1781.99355	0.30618
1780.06499	0.31040
1778.13643	0.31484
1776.20786	0.31889
1774.27930	0.32302
1772.35073	0.32861
1770.42217	0.33500
1768.49360	0.34053
1766.56504	0.34578
1764.63647	0.35094
1762.70791	0.35662
1760.77935	0.36410
1758.85078	0.37120
1756.92222	0.37826
1754.99365	0.38609
1753.06509	0.39318
1751.13652	0.40127
1749.20796	0.41148
1747.27939	0.42184
1745.35083	0.43104
1743.42227	0.44067
1741.49370	0.45118
1739.56514	0.46342
1737.63657	0.47567
1735.70801	0.48634
1733.77944	0.50269
1731.85088	0.52277
1729.92231	0.53855
1727.99375	0.55442
1726.06519	0.57123
1724.13662	0.58962
1722.20806	0.60957
1720.27949	0.62769
1718.35093	0.64872
1716.42236	0.68109
1714.49380	0.71242
1712.56523	0.73730
1710.63667	0.76121
1708.70811	0.78669
1706.77954	0.81554
1704.85098	0.85051
1702.92241	0.88170
1700.99385	0.91170
1699.06528	0.95748
1697.13672	1.00052
1695.20815	1.04441
1693.27959	1.08654
1691.35103	1.11976
1689.42246	1.15824
1687.49390	1.19950
1685.56533	1.23916
1683.63677	1.30141
1681.70820	1.36667
1679.77964	1.40692
1677.85107	1.44521
1675.92251	1.48945
1673.99395	1.54521
1672.06538	1.59437
1670.13682	1.64218
1668.20825	1.70660
1666.27969	1.75745
1664.35112	1.80007
1662.42256	1.85578
1660.49399	1.91988
1658.56543	1.96859
1656.63687	2.00784
1654.70830	2.04237
1652.77974	2.09653
1650.85117	2.15362
1648.92261	2.17599
1646.99404	2.20524
1645.06548	2.23642
1643.13691	2.25542
1641.20835	2.26484
1639.27979	2.27448
1637.35122	2.28201
1635.42266	2.28520
1633.49409	2.28114
1631.56553	2.26730
1629.63696	2.24921
1627.70840	2.22133
1625.77983	2.19061
1623.85127	2.15068
1621.92271	2.10152
1619.99414	2.05893
1618.06558	2.01715
1616.13701	1.95422
1614.20845	1.88860
1612.27988	1.83941
1610.35132	1.78935
1608.42275	1.73577
1606.49419	1.68272
1604.56562	1.63405
1602.63706	1.58662
1600.70850	1.53955
1598.77993	1.49612
1596.85137	1.45516
1594.92280	1.41488
1592.99424	1.37573
1591.06567	1.34037
1589.13711	1.30721
1587.20854	1.27575
1585.27998	1.24652
1583.35142	1.21944
1581.42285	1.19492
1579.49429	1.17412
1577.56572	1.15524
1575.63716	1.13155
1573.70859	1.11099
1571.78003	1.09812
1569.85146	1.08475
1567.92290	1.06980
1565.99434	1.05895
1564.06577	1.05088
1562.13721	1.04439
1560.20864	1.03956
1558.28008	1.03424
1556.35151	1.03115
1554.42295	1.02944
1552.49438	1.02715
1550.56582	1.02332
1548.63726	1.01775
1546.70869	1.01102
1544.78013	1.00187
1542.85156	0.98988
1540.92300	0.97382
1538.99443	0.95032
1537.06587	0.93408
1535.13730	0.92274
1533.20874	0.90685
1531.28018	0.89008
1529.35161	0.87818
1527.42305	0.86665
1525.49448	0.85437
1523.56592	0.84404
1521.63735	0.83467
1519.70879	0.82513
1517.78022	0.81653
1515.85166	0.80652
1513.92310	0.79653
1511.99453	0.78806
1510.06597	0.78037
1508.13740	0.77279
1506.20884	0.76085
1504.28027	0.75088
1502.35171	0.74527
1500.42314	0.74023
1498.49458	0.73473
1496.56602	0.72835
1494.63745	0.72230
1492.70889	0.71763
1490.78032	0.71343
1488.85176	0.70867
1486.92319	0.70430
1484.99463	0.70093
1483.06606	0.69816
1481.13750	0.69559
1479.20894	0.69343
1477.28037	0.69205
1475.35181	0.69122
1473.42324	0.69049
1471.49468	0.68882
1469.56611	0.68616
1467.63755	0.68342
1465.70898	0.68101
1463.78042	0.67902
1461.85186	0.67740
1459.92329	0.67613
1457.99473	0.67484
1456.06616	0.67292
1454.13760	0.67064
1452.20903	0.66839
1450.28047	0.66592
1448.35190	0.66329
1446.42334	0.66074
1444.49478	0.65847
1442.56621	0.65620
1440.63765	0.65374
1438.70908	0.65122
1436.78052	0.64819
1434.85195	0.64493
1432.92339	0.64253
1430.99482	0.64097
1429.06626	0.63996
1427.13770	0.63926
1425.20913	0.63882
1423.28057	0.63858
1421.35200	0.63825
1419.42344	0.63786
1417.49487	0.63726
1415.56631	0.63616
1413.63774	0.63525
1411.70918	0.63489
1409.78062	0.63503
1407.85205	0.63549
1405.92349	0.63611
1403.99492	0.63659
1402.06636	0.63645
1400.13779	0.63561
1398.20923	0.63401
1396.28066	0.63183
1394.35210	0.62919
1392.42354	0.62610
1390.49497	0.62288
1388.56641	0.61948
1386.63784	0.61557
1384.70928	0.61149
1382.78071	0.60771
1380.85215	0.60420
1378.92358	0.60108
1376.99502	0.59854
1375.06646	0.59658
1373.13789	0.59514
1371.20933	0.59414
1369.28076	0.59323
1367.35220	0.59206
1365.42363	0.59076
1363.49507	0.58958
1361.56650	0.58850
1359.63794	0.58727
1357.70937	0.58597
1355.78081	0.58478
1353.85225	0.58374
1351.92368	0.58289
1349.99512	0.58232
1348.06655	0.58181
1346.13799	0.58110
1344.20942	0.58031
1342.28086	0.57954
1340.35229	0.57881
1338.42373	0.57804
1336.49517	0.57725
1334.56660	0.57660
1332.63804	0.57622
1330.70947	0.57616
1328.78091	0.57625
1326.85234	0.57629
1324.92378	0.57633
1322.99521	0.57651
1321.06665	0.57677
1319.13809	0.57693
1317.20952	0.57670
1315.28096	0.57623
1313.35239	0.57585
1311.42383	0.57543
1309.49526	0.57486
1307.56670	0.57429
1305.63813	0.57375
1303.70957	0.57303
1301.78101	0.57216
1299.85244	0.57130
1297.92388	0.57043
1295.99531	0.56944
1294.06675	0.56834
1292.13818	0.56723
1290.20962	0.56613
1288.28105	0.56511
1286.35249	0.56415
1284.42393	0.56314
1282.49536	0.56208
1280.56680	0.56106
1278.63823	0.56009
1276.70967	0.55914
1274.78110	0.55816
1272.85254	0.55735
1270.92397	0.55676
1268.99541	0.55611
1267.06685	0.55528
1265.13828	0.55447
1263.20972	0.55391
1261.28115	0.55352
1259.35259	0.55314
1257.42402	0.55270
1255.49546	0.55233
1253.56689	0.55223
1251.63833	0.55237
1249.70977	0.55251
1247.78120	0.55251
1245.85264	0.55245
1243.92407	0.55230
1241.99551	0.55170
1240.06694	0.55061
1238.13838	0.54939
1236.20981	0.54802
1234.28125	0.54641
1232.35269	0.54471
1230.42412	0.54302
1228.49556	0.54143
1226.56699	0.54003
1224.63843	0.53880
1222.70986	0.53759
1220.78130	0.53639
1218.85273	0.53532
1216.92417	0.53434
1214.99561	0.53347
1213.06704	0.53271
1211.13848	0.53192
1209.20991	0.53102
1207.28135	0.53020
1205.35278	0.52949
1203.42422	0.52876
1201.49565	0.52801
1199.56709	0.52733
1197.63853	0.52663
1195.70996	0.52595
1193.78140	0.52532
1191.85283	0.52474
1189.92427	0.52435
1187.99570	0.52424
1186.06714	0.52424
1184.13857	0.52425
1182.21001	0.52446
1180.28145	0.52503
1178.35288	0.52584
1176.42432	0.52676
1174.49575	0.52766
1172.56719	0.52836
1170.63862	0.52862
1168.71006	0.52862
1166.78149	0.52862
1164.85293	0.52845
1162.92437	0.52797
1160.99580	0.52740
1159.06724	0.52685
1157.13867	0.52619
1155.21011	0.52517
1153.28154	0.52364
1151.35298	0.52164
1149.42441	0.51942
1147.49585	0.51719
1145.56729	0.51493
1143.63872	0.51259
1141.71016	0.51008
1139.78159	0.50754
1137.85303	0.50542
1135.92446	0.50373
1133.99590	0.50221
1132.06733	0.50082
1130.13877	0.49948
1128.21021	0.49817
1126.28164	0.49708
1124.35308	0.49609
1122.42451	0.49509
1120.49595	0.49418
1118.56738	0.49348
1116.63882	0.49313
1114.71025	0.49325
1112.78169	0.49359
1110.85312	0.49395
1108.92456	0.49449
1106.99600	0.49529
1105.06743	0.49641
1103.13887	0.49793
1101.21030	0.49984
1099.28174	0.50221
1097.35317	0.50499
1095.42461	0.50794
1093.49604	0.51125
1091.56748	0.51530
1089.63892	0.52004
1087.71035	0.52527
1085.78179	0.53106
1083.85322	0.53724
1081.92466	0.54320
1079.99609	0.54823
1078.06753	0.55141
1076.13896	0.55210
1074.21040	0.55028
1072.28184	0.54610
1070.35327	0.54024
1068.42471	0.53376
1066.49614	0.52727
1064.56758	0.52116
1062.63901	0.51578
1060.71045	0.51113
1058.78188	0.50697
1056.85332	0.50305
1054.92476	0.49946
1052.99619	0.49633
1051.06763	0.49337
1049.13906	0.49055
1047.21050	0.48819
1045.28193	0.48640
1043.35337	0.48490
1041.42480	0.48340
1039.49624	0.48202
1037.56768	0.48103
1035.63911	0.48068
1033.71055	0.48076
1031.78198	0.48087
1029.85342	0.48084
1027.92485	0.48077
1025.99629	0.48097
1024.06772	0.48149
1022.13916	0.48210
1020.21060	0.48282
1018.28203	0.48372
1016.35347	0.48456
1014.42490	0.48528
1012.49634	0.48619
1010.56777	0.48746
1008.63921	0.48901
1006.71064	0.49083
1004.78208	0.49292
1002.85352	0.49526
1000.92495	0.49806
998.99639	0.50137
997.06782	0.50515
995.13926	0.50918
993.21069	0.51306
991.28213	0.51636
989.35356	0.51893
987.42500	0.52077
985.49644	0.52182
983.56787	0.52236
981.63931	0.52310
979.71074	0.52439
977.78218	0.52623
975.85361	0.52869
973.92505	0.53153
971.99648	0.53449
970.06792	0.53782
968.13936	0.54179
966.21079	0.54613
964.28223	0.55068
962.35366	0.55539
960.42510	0.56000
958.49653	0.56480
956.56797	0.57033
954.63940	0.57642
952.71084	0.58279
950.78228	0.58936
948.85371	0.59585
946.92515	0.60210
944.99658	0.60826
943.06802	0.61440
941.13945	0.62023
939.21089	0.62593
937.28232	0.63200
935.35376	0.63830
933.42520	0.64408
931.49663	0.64905
929.56807	0.65383
927.63950	0.65928
925.71094	0.66548
923.78237	0.67125
921.85381	0.67640
919.92524	0.68261
917.99668	0.69020
916.06812	0.69802
914.13955	0.70594
912.21099	0.71400
910.28242	0.72208
908.35386	0.73023
906.42529	0.73876
904.49673	0.74817
902.56816	0.75728
900.63960	0.76535
898.71104	0.77430
896.78247	0.78484
894.85391	0.79559
892.92534	0.80602
890.99678	0.81612
889.06821	0.82580
887.13965	0.83551
885.21108	0.84564
883.28252	0.85582
881.35396	0.86579
879.42539	0.87659
877.49683	0.88885
875.56826	0.90168
873.63970	0.91429
871.71113	0.92644
869.78257	0.93857
867.85400	0.95057
865.92544	0.96167
863.99687	0.97269
862.06831	0.98416
860.13975	0.99558
858.21118	1.00701
856.28262	1.01923
854.35405	1.03179
852.42549	1.04166
850.49692	1.04965
848.56836	1.06038
846.63979	1.07461
844.71123	1.08979
842.78267	1.10293
840.85410	1.11313
838.92554	1.12254
836.99697	1.13340
835.06841	1.14600
833.13984	1.15755
831.21128	1.16528
829.28271	1.17318
827.35415	1.18493
825.42559	1.19722
823.49702	1.20958
821.56846	1.22228
819.63989	1.23212
817.71133	1.24189
815.78276	1.25792
813.85420	1.27346
811.92563	1.28250
809.99707	1.29919
808.06851	1.32124
806.13994	1.32363
804.21138	1.30382
802.28281	1.28997
800.35425	1.30911
798.42568	1.35696
796.49712	1.39226
794.56855	1.39641
792.63999	1.39852
790.71143	1.40508
788.78286	1.39537
786.85430	1.37847
784.92573	1.38431
782.99717	1.39520
781.06860	1.39374
779.14004	1.42150
777.21147	1.48433
775.28291	1.45291
773.35435	1.34765
771.42578	1.31580
769.49722	1.31636
767.56865	1.28405
765.64009	1.27277
763.71152	1.31138
761.78296	1.37430
759.85439	1.39809
757.92583	1.36863
755.99727	1.33858
754.06870	1.31138
752.14014	1.30488
750.21157	1.41111
748.28301	1.45860
746.35444	1.27220
744.42588	1.10239
742.49731	0.95335
740.56875	0.83283
738.64019	0.76087
736.71162	0.77178
734.78306	0.88564
732.85449	0.92373
730.92593	0.80445
728.99736	0.77525
727.06880	0.86016
725.14023	0.75125
723.21167	0.42274
721.28311	0.14285
719.35454	0.06706
717.42598	0.16949
715.49741	0.22258
713.56885	0.31106
711.64028	0.44878
709.71172	0.43797
707.78315	0.30323
705.85459	0.23565
703.92603	0.22840
701.99746	0.19397
700.06890	0.20755
698.14033	0.36074
696.21177	0.52006
694.28320	0.54394
692.35464	0.61604
690.42607	0.62347
688.49751	0.46136
686.56895	0.38786
684.64038	0.39743
682.71182	0.40456
680.78325	0.45317
678.85469	0.55666
676.92612	0.60658
674.99756	0.64370
673.06899	0.68795
671.14043	0.54344
669.21187	0.43994
667.28330	0.46292
665.35474	0.45273
663.42617	0.37655
661.49761	0.37513
659.56904	0.35299
657.64048	0.29328
655.71191	0.30800
653.78335	0.31844
651.85479	0.31150
649.92622	0.37462
647.99766	0.37760
646.06909	0.30813
644.14053	0.38036
642.21196	0.45732
640.28340	0.33606
638.35483	0.27478
636.42627	0.36316
634.49771	0.52377
632.56914	0.63343
630.64058	0.58850
628.71201	0.47728
626.78345	0.38670
624.85488	0.32301
622.92632	0.30717
620.99775	0.32759
619.06919	0.33772
617.14062	0.28497
615.21206	0.24588
613.28350	0.34420
611.35493	0.49420
609.42637	0.41900
607.49780	0.38640
605.56924	0.51201
603.64067	0.53631
601.71211	0.41385
599.78354	0.34413
597.85498	0.30773
595.92642	0.34615
593.99785	0.50490
592.06929	0.75891
590.14072	0.64601
588.21216	0.43657
586.28359	0.35780
584.35503	0.30065
582.42646	0.24379
580.49790	0.26539
578.56934	0.42983
576.64077	1.02773
574.71221	3.44827
572.78364	3.43670
570.85508	3.42513
568.92651	0.81373
566.99795	0.47664
565.06938	0.34473
563.14082	0.37929
561.21226	0.60487
559.28369	0.62746
557.35513	0.32185
555.42656	0.19538
553.49800	0.17344
551.56943	0.19334
549.64087	0.27755
547.71230	0.40612
545.78374	0.42535
543.85518	0.39374
541.92661	0.40135
539.99805	0.43812
538.06948	0.43620
536.14092	0.32750
534.21235	0.24381
532.28379	0.23925
530.35522	0.27389
528.42666	0.27250
526.49810	0.24825
524.56953	0.26492
522.64097	0.36614
520.71240	0.47408
518.78384	0.45922
516.85527	0.41823
514.92671	0.34619
512.99814	0.27128
511.06958	0.23652
509.14102	0.23462
507.21245	0.27380
505.28389	0.32211
503.35532	0.27952
501.42676	0.20056
499.49819	0.17782
