3997.91411	0.07486
3995.98555	0.07554
3994.05698	0.07614
3992.12842	0.07661
3990.19985	0.07698
3988.27129	0.07708
3986.34272	0.07698
3984.41416	0.07721
3982.48560	0.07784
3980.55703	0.07840
3978.62847	0.07850
3976.69990	0.07853
3974.77134	0.07913
3972.84277	0.07986
3970.91421	0.07988
3968.98564	0.07955
3967.05708	0.07944
3965.12852	0.07943
3963.19995	0.07955
3961.27139	0.07997
3959.34282	0.08052
3957.41426	0.08114
3955.48569	0.08150
3953.55713	0.08113
3951.62856	0.08094
3949.70000	0.08186
3947.77144	0.08295
3945.84287	0.08305
3943.91431	0.08301
3941.98574	0.08304
3940.05718	0.08186
3938.12861	0.08047
3936.20005	0.08040
3934.27148	0.08144
3932.34292	0.08297
3930.41436	0.08388
3928.48579	0.08322
3926.55723	0.08250
3924.62866	0.08310
3922.70010	0.08353
3920.77153	0.08290
3918.84297	0.08282
3916.91440	0.08345
3914.98584	0.08282
3913.05728	0.08062
3911.12871	0.07894
3909.20015	0.07887
3907.27158	0.08031
3905.34302	0.08341
3903.41445	0.08735
3901.48589	0.08937
3899.55732	0.08865
3897.62876	0.08599
3895.70020	0.08294
3893.77163	0.08218
3891.84307	0.08407
3889.91450	0.08508
3887.98594	0.08377
3886.05737	0.08396
3884.12881	0.08601
3882.20024	0.08710
3880.27168	0.08720
3878.34312	0.08572
3876.41455	0.08378
3874.48599	0.08460
3872.55742	0.08798
3870.62886	0.09140
3868.70029	0.09233
3866.77173	0.09048
3864.84316	0.09008
3862.91460	0.09105
3860.98604	0.08980
3859.05747	0.08781
3857.12891	0.08811
3855.20034	0.09185
3853.27178	0.09904
3851.34321	0.10133
3849.41465	0.09506
3847.48608	0.08985
3845.55752	0.08860
3843.62896	0.09105
3841.70039	0.09539
3839.77183	0.09965
3837.84326	0.10238
3835.91470	0.10190
3833.98613	0.09985
3832.05757	0.09808
3830.12900	0.09669
3828.20044	0.09657
3826.27187	0.09813
3824.34331	0.10000
3822.41475	0.10256
3820.48618	0.10698
3818.55762	0.10868
3816.62905	0.10728
3814.70049	0.10554
3812.77192	0.10259
3810.84336	0.10056
3808.91479	0.10169
3806.98623	0.10585
3805.05767	0.10995
3803.12910	0.11268
3801.20054	0.11612
3799.27197	0.11750
3797.34341	0.11606
3795.41484	0.11454
3793.48628	0.11254
3791.55771	0.11114
3789.62915	0.11133
3787.70059	0.11275
3785.77202	0.11535
3783.84346	0.11806
3781.91489	0.11970
3779.98633	0.12168
3778.05776	0.12373
3776.12920	0.12388
3774.20063	0.12402
3772.27207	0.12617
3770.34351	0.13027
3768.41494	0.13434
3766.48638	0.13636
3764.55781	0.13735
3762.62925	0.13817
3760.70068	0.14045
3758.77212	0.14500
3756.84355	0.14866
3754.91499	0.15074
3752.98643	0.15536
3751.05786	0.16454
3749.12930	0.17234
3747.20073	0.17287
3745.27217	0.17278
3743.34360	0.17493
3741.41504	0.17663
3739.48647	0.17853
3737.55791	0.18331
3735.62935	0.19183
3733.70078	0.19970
3731.77222	0.20130
3729.84365	0.20082
3727.91509	0.20290
3725.98652	0.20865
3724.05796	0.21633
3722.12939	0.22335
3720.20083	0.22918
3718.27227	0.23406
3716.34370	0.23956
3714.41514	0.24750
3712.48657	0.25993
3710.55801	0.27703
3708.62944	0.29063
3706.70088	0.29854
3704.77231	0.30727
3702.84375	0.31995
3700.91519	0.33724
3698.98662	0.35537
3697.05806	0.37225
3695.12949	0.39101
3693.20093	0.41218
3691.27236	0.43675
3689.34380	0.46826
3687.41523	0.50275
3685.48667	0.52988
3683.55811	0.55366
3681.62954	0.58118
3679.70098	0.61408
3677.77241	0.64989
3675.84385	0.69241
3673.91528	0.74720
3671.98672	0.78906
3670.05815	0.82656
3668.12959	0.87887
3666.20103	0.92468
3664.27246	0.96283
3662.34390	1.00516
3660.41533	1.05197
3658.48677	1.09921
3656.55820	1.15058
3654.62964	1.20730
3652.70107	1.25396
3650.77251	1.29631
3648.84395	1.35727
3646.91538	1.42780
3644.98682	1.47330
3643.05825	1.50776
3641.12969	1.54596
3639.20112	1.58939
3637.27256	1.63254
3635.34399	1.67493
3633.41543	1.71900
3631.48687	1.76132
3629.55830	1.80497
3627.62974	1.86146
3625.70117	1.91006
3623.77261	1.94088
3621.84404	1.97285
3619.91548	2.01225
3617.98691	2.05978
3616.05835	2.10352
3614.12979	2.14024
3612.20122	2.17964
3610.27266	2.21749
3608.34409	2.25558
3606.41553	2.29828
3604.48696	2.33727
3602.55840	2.37073
3600.62983	2.40771
3598.70127	2.44907
3596.77271	2.48855
3594.84414	2.52801
3592.91558	2.56980
3590.98701	2.60837
3589.05845	2.64392
3587.12988	2.68969
3585.20132	2.74006
3583.27275	2.77877
3581.34419	2.81438
3579.41562	2.85419
3577.48706	2.89619
3575.55850	2.93866
3573.62993	2.98179
3571.70137	3.02186
3569.77280	3.05992
3567.84424	3.10430
3565.91567	3.16160
3563.98711	3.21358
3562.05854	3.25227
3560.12998	3.29148
3558.20142	3.33485
3556.27285	3.37953
3554.34429	3.42347
3552.41572	3.46986
3550.48716	3.51736
3548.55859	3.56171
3546.63003	3.60582
3544.70146	3.65241
3542.77290	3.69701
3540.84434	3.73927
3538.91577	3.78415
3536.98721	3.83187
3535.05864	3.88062
3533.13008	3.92778
3531.20151	3.97541
3529.27295	4.02583
3527.34438	4.07741
3525.41582	4.12498
3523.48726	4.16862
3521.55869	4.21579
3519.63013	4.26591
3517.70156	4.31492
3515.77300	4.36063
3513.84443	4.40532
3511.91587	4.45581
3509.98730	4.51255
3508.05874	4.56453
3506.13018	4.60519
3504.20161	4.64470
3502.27305	4.69156
3500.34448	4.74087
3498.41592	4.78937
3496.48735	4.83883
3494.55879	4.88767
3492.63022	4.93712
3490.70166	4.98873
3488.77310	5.03876
3486.84453	5.08415
3484.91597	5.12926
3482.98740	5.17698
3481.05884	5.22299
3479.13027	5.26605
3477.20171	5.31513
3475.27314	5.37357
3473.34458	5.42870
3471.41602	5.47025
3469.48745	5.50548
3467.55889	5.54954
3465.63032	5.60903
3463.70176	5.67690
3461.77319	5.73556
3459.84463	5.77695
3457.91606	5.81060
3455.98750	5.85333
3454.05894	5.90894
3452.13037	5.96867
3450.20181	6.01944
3448.27324	6.04938
3446.34468	6.08268
3444.41611	6.13273
3442.48755	6.18647
3440.55898	6.24915
3438.63042	6.31445
3436.70186	6.35773
3434.77329	6.38805
3432.84473	6.44014
3430.91616	6.50973
3428.98760	6.57406
3427.05903	6.62790
3425.13047	6.67261
3423.20190	6.71260
3421.27334	6.76343
3419.34478	6.81737
3417.41621	6.85422
3415.48765	6.88514
3413.55908	6.93189
3411.63052	6.97652
3409.70195	6.99423
3407.77339	7.04198
3405.84482	7.13074
3403.91626	7.19967
3401.98770	7.22398
3400.05913	7.24523
3398.13057	7.30607
3396.20200	7.37130
3394.27344	7.39524
3392.34487	7.36947
3390.41631	7.34347
3388.48774	7.38310
3386.55918	7.50356
3384.63062	7.61328
3382.70205	7.62211
3380.77349	7.58674
3378.84492	7.57867
3376.91636	7.61835
3374.98779	7.71409
3373.05923	7.83380
3371.13066	7.86155
3369.20210	7.79270
3367.27354	7.73778
3365.34497	7.76860
3363.41641	7.83561
3361.48784	7.85252
3359.55928	7.83970
3357.63071	7.83556
3355.70215	7.88690
3353.77358	7.96917
3351.84502	8.00539
3349.91646	7.96240
3347.98789	7.90228
3346.05933	7.90201
3344.13076	7.95212
3342.20220	7.98366
3340.27363	7.97366
3338.34507	7.97112
3336.41650	7.97730
3334.48794	8.03339
3332.55937	8.10542
3330.63081	8.10484
3328.70225	8.07893
3326.77368	8.06812
3324.84512	8.03948
3322.91655	8.00320
3320.98799	8.03762
3319.05942	8.08671
3317.13086	8.06569
3315.20229	8.05299
3313.27373	8.12926
3311.34517	8.21758
3309.41660	8.20711
3307.48804	8.11815
3305.55947	8.04184
3303.63091	8.00663
3301.70234	7.99007
3299.77378	8.04509
3297.84521	8.10792
3295.91665	8.07685
3293.98809	8.07947
3292.05952	8.16992
3290.13096	8.20449
3288.20239	8.22266
3286.27383	8.29034
3284.34526	8.23290
3282.41670	8.11758
3280.48813	8.16013
3278.55957	8.33808
3276.63101	8.41051
3274.70244	8.29980
3272.77388	8.14584
3270.84531	8.04577
3268.91675	8.02017
3266.98818	8.01836
3265.05962	8.04050
3263.13105	8.08310
3261.20249	8.14620
3259.27393	8.19418
3257.34536	8.15971
3255.41680	8.12315
3253.48823	8.18105
3251.55967	8.27750
3249.63110	8.30101
3247.70254	8.22749
3245.77397	8.15437
3243.84541	8.24452
3241.91685	8.40034
3239.98828	8.35147
3238.05972	8.24075
3236.13115	8.24957
3234.20259	8.21584
3232.27402	8.09386
3230.34546	8.07352
3228.41689	8.11523
3226.48833	8.10136
3224.55977	8.09373
3222.63120	8.09111
3220.70264	8.01831
3218.77407	7.94818
3216.84551	7.92948
3214.91694	7.87553
3212.98838	7.79071
3211.05981	7.79268
3209.13125	7.87612
3207.20269	7.92262
3205.27412	7.92129
3203.34556	7.87983
3201.41699	7.77823
3199.48843	7.67243
3197.55986	7.60309
3195.63130	7.57777
3193.70273	7.58925
3191.77417	7.61671
3189.84561	7.63716
3187.91704	7.60611
3185.98848	7.52000
3184.05991	7.45355
3182.13135	7.41956
3180.20278	7.37413
3178.27422	7.30982
3176.34565	7.21290
3174.41709	7.09989
3172.48853	7.02801
3170.55996	7.00799
3168.63140	6.99932
3166.70283	6.94597
3164.77427	6.85332
3162.84570	6.77324
3160.91714	6.70472
3158.98857	6.63091
3157.06001	6.56871
3155.13145	6.52631
3153.20288	6.47924
3151.27432	6.41212
3149.34575	6.34592
3147.41719	6.29922
3145.48862	6.24413
3143.56006	6.14973
3141.63149	6.05209
3139.70293	5.99136
3137.77437	5.94262
3135.84580	5.87569
3133.91724	5.80306
3131.98867	5.73055
3130.06011	5.65795
3128.13154	5.59087
3126.20298	5.52318
3124.27441	5.44869
3122.34585	5.36925
3120.41729	5.29649
3118.48872	5.22870
3116.56016	5.15643
3114.63159	5.08808
3112.70303	5.02375
3110.77446	4.95396
3108.84590	4.88344
3106.91733	4.81481
3104.98877	4.74347
3103.06021	4.67271
3101.13164	4.60118
3099.20308	4.52528
3097.27451	4.45472
3095.34595	4.39445
3093.41738	4.33494
3091.48882	4.27264
3089.56025	4.20999
3087.63169	4.14355
3085.70312	4.07607
3083.77456	4.01365
3081.84600	3.95267
3079.91743	3.88911
3077.98887	3.82527
3076.06030	3.76259
3074.13174	3.70102
3072.20317	3.64242
3070.27461	3.58693
3068.34604	3.53233
3066.41748	3.47696
3064.48892	3.41979
3062.56035	3.36217
3060.63179	3.30739
3058.70322	3.25551
3056.77466	3.20321
3054.84609	3.14874
3052.91753	3.09413
3050.98896	3.04137
3049.06040	2.98978
3047.13184	2.93954
3045.20327	2.89106
3043.27471	2.84266
3041.34614	2.79390
3039.41758	2.74659
3037.48901	2.70086
3035.56045	2.65522
3033.63188	2.60979
3031.70332	2.56505
3029.77476	2.52061
3027.84619	2.47714
3025.91763	2.43472
3023.98906	2.39231
3022.06050	2.35057
3020.13193	2.31014
3018.20337	2.27022
3016.27480	2.23054
3014.34624	2.19181
3012.41768	2.15401
3010.48911	2.11617
3008.56055	2.07866
3006.63198	2.04236
3004.70342	2.00668
3002.77485	1.97085
3000.84629	1.93542
2998.91772	1.90129
2996.98916	1.86777
2995.06060	1.83408
2993.13203	1.80078
2991.20347	1.76856
2989.27490	1.73738
2987.34634	1.70675
2985.41777	1.67644
2983.48921	1.64678
2981.56064	1.61762
2979.63208	1.58823
2977.70352	1.55858
2975.77495	1.52957
2973.84639	1.50146
2971.91782	1.47386
2969.98926	1.44682
2968.06069	1.42031
2966.13213	1.39434
2964.20356	1.36885
2962.27500	1.34328
2960.34644	1.31777
2958.41787	1.29311
2956.48931	1.26991
2954.56074	1.24773
2952.63218	1.22559
2950.70361	1.20337
2948.77505	1.18137
2946.84648	1.15971
2944.91792	1.13837
2942.98936	1.11708
2941.06079	1.09579
2939.13223	1.07479
2937.20366	1.05434
2935.27510	1.03487
2933.34653	1.01617
2931.41797	0.99741
2929.48940	0.97903
2927.56084	0.96181
2925.63228	0.94505
2923.70371	0.92828
2921.77515	0.91211
2919.84658	0.89627
2917.91802	0.87977
2915.98945	0.86331
2914.06089	0.84797
2912.13232	0.83337
2910.20376	0.81904
2908.27520	0.80497
2906.34663	0.79105
2904.41807	0.77737
2902.48950	0.76433
2900.56094	0.75194
2898.63237	0.73986
2896.70381	0.72772
2894.77524	0.71534
2892.84668	0.70306
2890.91812	0.69139
2888.98955	0.68014
2887.06099	0.66871
2885.13242	0.65734
2883.20386	0.64645
2881.27529	0.63584
2879.34673	0.62522
2877.41816	0.61455
2875.48960	0.60393
2873.56104	0.59351
2871.63247	0.58332
2869.70391	0.57347
2867.77534	0.56390
2865.84678	0.55418
2863.91821	0.54434
2861.98965	0.53477
2860.06108	0.52531
2858.13252	0.51616
2856.20396	0.50781
2854.27539	0.49989
2852.34683	0.49179
2850.41826	0.48378
2848.48970	0.47598
2846.56113	0.46806
2844.63257	0.46057
2842.70400	0.45417
2840.77544	0.44834
2838.84687	0.44231
2836.91831	0.43618
2834.98975	0.43033
2833.06118	0.42483
2831.13262	0.41929
2829.20405	0.41344
2827.27549	0.40748
2825.34692	0.40161
2823.41836	0.39596
2821.48979	0.39054
2819.56123	0.38493
2817.63267	0.37902
2815.70410	0.37319
2813.77554	0.36757
2811.84697	0.36226
2809.91841	0.35728
2807.98984	0.35233
2806.06128	0.34716
2804.13271	0.34197
2802.20415	0.33699
2800.27559	0.33216
2798.34702	0.32750
2796.41846	0.32298
2794.48989	0.31854
2792.56133	0.31433
2790.63276	0.31017
2788.70420	0.30590
2786.77563	0.30176
2784.84707	0.29780
2782.91851	0.29391
2780.98994	0.29012
2779.06138	0.28641
2777.13281	0.28269
2775.20425	0.27901
2773.27568	0.27541
2771.34712	0.27175
2769.41855	0.26808
2767.48999	0.26469
2765.56143	0.26160
2763.63286	0.25847
2761.70430	0.25521
2759.77573	0.25205
2757.84717	0.24908
2755.91860	0.24611
2753.99004	0.24319
2752.06147	0.24050
2750.13291	0.23790
2748.20435	0.23522
2746.27578	0.23251
2744.34722	0.22979
2742.41865	0.22709
2740.49009	0.22455
2738.56152	0.22222
2736.63296	0.21989
2734.70439	0.21746
2732.77583	0.21514
2730.84727	0.21302
2728.91870	0.21092
2726.99014	0.20883
2725.06157	0.20685
2723.13301	0.20491
2721.20444	0.20287
2719.27588	0.20092
2717.34731	0.19920
2715.41875	0.19750
2713.49019	0.19571
2711.56162	0.19406
2709.63306	0.19261
2707.70449	0.19107
2705.77593	0.18936
2703.84736	0.18766
2701.91880	0.18613
2699.99023	0.18471
2698.06167	0.18322
2696.13311	0.18170
2694.20454	0.18024
2692.27598	0.17877
2690.34741	0.17734
2688.41885	0.17603
2686.49028	0.17482
2684.56172	0.17363
2682.63315	0.17252
2680.70459	0.17160
2678.77603	0.17075
2676.84746	0.16970
2674.91890	0.16851
2672.99033	0.16740
2671.06177	0.16640
2669.13320	0.16547
2667.20464	0.16466
2665.27607	0.16385
2663.34751	0.16290
2661.41895	0.16197
2659.49038	0.16126
2657.56182	0.16067
2655.63325	0.16000
2653.70469	0.15927
2651.77612	0.15849
2649.84756	0.15780
2647.91899	0.15731
2645.99043	0.15686
2644.06187	0.15640
2642.13330	0.15608
2640.20474	0.15578
2638.27617	0.15529
2636.34761	0.15474
2634.41904	0.15434
2632.49048	0.15397
2630.56191	0.15357
2628.63335	0.15320
2626.70479	0.15282
2624.77622	0.15245
2622.84766	0.15220
2620.91909	0.15202
2618.99053	0.15182
2617.06196	0.15166
2615.13340	0.15164
2613.20483	0.15169
2611.27627	0.15165
2609.34771	0.15157
2607.41914	0.15152
2605.49058	0.15147
2603.56201	0.15140
2601.63345	0.15141
2599.70488	0.15150
2597.77632	0.15160
2595.84775	0.15167
2593.91919	0.15174
2591.99062	0.15182
2590.06206	0.15205
2588.13350	0.15244
2586.20493	0.15270
2584.27637	0.15286
2582.34780	0.15314
2580.41924	0.15350
2578.49067	0.15383
2576.56211	0.15410
2574.63354	0.15430
2572.70498	0.15460
2570.77642	0.15521
2568.84785	0.15589
2566.91929	0.15637
2564.99072	0.15665
2563.06216	0.15689
2561.13359	0.15734
2559.20503	0.15798
2557.27646	0.15860
2555.34790	0.15914
2553.41934	0.15972
2551.49077	0.16028
2549.56221	0.16082
2547.63364	0.16139
2545.70508	0.16199
2543.77651	0.16265
2541.84795	0.16340
2539.91938	0.16420
2537.99082	0.16493
2536.06226	0.16566
2534.13369	0.16638
2532.20513	0.16698
2530.27656	0.16755
2528.34800	0.16824
2526.41943	0.16903
2524.49087	0.16983
2522.56230	0.17065
2520.63374	0.17151
2518.70518	0.17240
2516.77661	0.17333
2514.84805	0.17419
2512.91948	0.17492
2510.99092	0.17562
2509.06235	0.17640
2507.13379	0.17733
2505.20522	0.17828
2503.27666	0.17907
2501.34810	0.17980
2499.41953	0.18058
2497.49097	0.18142
2495.56240	0.18230
2493.63384	0.18326
2491.70527	0.18429
2489.77671	0.18525
2487.84814	0.18603
2485.91958	0.18675
2483.99102	0.18764
2482.06245	0.18868
2480.13389	0.18965
2478.20532	0.19060
2476.27676	0.19158
2474.34819	0.19258
2472.41963	0.19363
2470.49106	0.19468
2468.56250	0.19563
2466.63394	0.19646
2464.70537	0.19734
2462.77681	0.19835
2460.84824	0.19934
2458.91968	0.20030
2456.99111	0.20134
2455.06255	0.20235
2453.13398	0.20323
2451.20542	0.20418
2449.27686	0.20527
2447.34829	0.20629
2445.41973	0.20727
2443.49116	0.20843
2441.56260	0.20967
2439.63403	0.21079
2437.70547	0.21183
2435.77690	0.21285
2433.84834	0.21394
2431.91978	0.21506
2429.99121	0.21617
2428.06265	0.21724
2426.13408	0.21828
2424.20552	0.21932
2422.27695	0.22037
2420.34839	0.22147
2418.41982	0.22267
2416.49126	0.22388
2414.56270	0.22499
2412.63413	0.22601
2410.70557	0.22708
2408.77700	0.22829
2406.84844	0.22958
2404.91987	0.23086
2402.99131	0.23209
2401.06274	0.23331
2399.13418	0.23450
2397.20562	0.23568
2395.27705	0.23690
2393.34849	0.23814
2391.41992	0.23945
2389.49136	0.24091
2387.56279	0.24251
2385.63423	0.24433
2383.70566	0.24648
2381.77710	0.24892
2379.84854	0.25177
2377.91997	0.25519
2375.99141	0.25907
2374.06284	0.26320
2372.13428	0.26755
2370.20571	0.27234
2368.27715	0.27804
2366.34858	0.28440
2364.42002	0.28953
2362.49146	0.29197
2360.56289	0.29241
2358.63433	0.29285
2356.70576	0.29362
2354.77720	0.29327
2352.84863	0.29161
2350.92007	0.28904
2348.99150	0.28701
2347.06294	0.28718
2345.13437	0.29068
2343.20581	0.29656
2341.27725	0.30070
2339.34868	0.30163
2337.42012	0.30136
2335.49155	0.30192
2333.56299	0.30346
2331.63442	0.30541
2329.70586	0.30703
2327.77729	0.30778
2325.84873	0.30812
2323.92017	0.30863
2321.99160	0.30914
2320.06304	0.30930
2318.13447	0.30935
2316.20591	0.30964
2314.27734	0.31040
2312.34878	0.31155
2310.42021	0.31277
2308.49165	0.31378
2306.56309	0.31456
2304.63452	0.31541
2302.70596	0.31656
2300.77739	0.31796
2298.84883	0.31938
2296.92026	0.32075
2294.99170	0.32225
2293.06313	0.32385
2291.13457	0.32533
2289.20601	0.32676
2287.27744	0.32828
2285.34888	0.32984
2283.42031	0.33151
2281.49175	0.33355
2279.56318	0.33579
2277.63462	0.33800
2275.70605	0.34026
2273.77749	0.34244
2271.84893	0.34435
2269.92036	0.34621
2267.99180	0.34827
2266.06323	0.35045
2264.13467	0.35260
2262.20610	0.35473
2260.27754	0.35686
2258.34897	0.35891
2256.42041	0.36093
2254.49185	0.36302
2252.56328	0.36528
2250.63472	0.36764
2248.70615	0.36987
2246.77759	0.37191
2244.84902	0.37398
2242.92046	0.37620
2240.99189	0.37850
2239.06333	0.38075
2237.13477	0.38292
2235.20620	0.38507
2233.27764	0.38723
2231.34907	0.38940
2229.42051	0.39162
2227.49194	0.39392
2225.56338	0.39629
2223.63481	0.39866
2221.70625	0.40088
2219.77769	0.40294
2217.84912	0.40497
2215.92056	0.40712
2213.99199	0.40939
2212.06343	0.41162
2210.13486	0.41378
2208.20630	0.41598
2206.27773	0.41818
2204.34917	0.42026
2202.42061	0.42228
2200.49204	0.42425
2198.56348	0.42616
2196.63491	0.42810
2194.70635	0.43015
2192.77778	0.43219
2190.84922	0.43415
2188.92065	0.43605
2186.99209	0.43784
2185.06353	0.43964
2183.13496	0.44154
2181.20640	0.44342
2179.27783	0.44517
2177.34927	0.44677
2175.42070	0.44830
2173.49214	0.44980
2171.56357	0.45119
2169.63501	0.45246
2167.70645	0.45375
2165.77788	0.45514
2163.84932	0.45650
2161.92075	0.45775
2159.99219	0.45891
2158.06362	0.46001
2156.13506	0.46095
2154.20649	0.46171
2152.27793	0.46246
2150.34937	0.46321
2148.42080	0.46395
2146.49224	0.46465
2144.56367	0.46519
2142.63511	0.46556
2140.70654	0.46583
2138.77798	0.46611
2136.84941	0.46636
2134.92085	0.46642
2132.99229	0.46635
2131.06372	0.46637
2129.13516	0.46639
2127.20659	0.46617
2125.27803	0.46576
2123.34946	0.46528
2121.42090	0.46480
2119.49233	0.46429
2117.56377	0.46368
2115.63521	0.46295
2113.70664	0.46217
2111.77808	0.46140
2109.84951	0.46055
2107.92095	0.45949
2105.99238	0.45826
2104.06382	0.45701
2102.13525	0.45578
2100.20669	0.45450
2098.27812	0.45300
2096.34956	0.45136
2094.42100	0.44986
2092.49243	0.44849
2090.56387	0.44700
2088.63530	0.44530
2086.70674	0.44343
2084.77817	0.44148
2082.84961	0.43958
2080.92104	0.43767
2078.99248	0.43560
2077.06392	0.43340
2075.13535	0.43120
2073.20679	0.42898
2071.27822	0.42670
2069.34966	0.42446
2067.42109	0.42234
2065.49253	0.42022
2063.56396	0.41783
2061.63540	0.41527
2059.70684	0.41273
2057.77827	0.41020
2055.84971	0.40765
2053.92114	0.40505
2051.99258	0.40247
2050.06401	0.39990
2048.13545	0.39720
2046.20688	0.39438
2044.27832	0.39165
2042.34976	0.38906
2040.42119	0.38641
2038.49263	0.38365
2036.56406	0.38085
2034.63550	0.37798
2032.70693	0.37507
2030.77837	0.37228
2028.84980	0.36958
2026.92124	0.36684
2024.99268	0.36397
2023.06411	0.36108
2021.13555	0.35841
2019.20698	0.35603
2017.27842	0.35360
2015.34985	0.35067
2013.42129	0.34749
2011.49272	0.34445
2009.56416	0.34163
2007.63560	0.33898
2005.70703	0.33632
2003.77847	0.33355
2001.84990	0.33077
1999.92134	0.32813
1997.99277	0.32554
1996.06421	0.32296
1994.13564	0.32071
1992.20708	0.31864
1990.27852	0.31607
1988.34995	0.31310
1986.42139	0.31025
1984.49282	0.30763
1982.56426	0.30525
1980.63569	0.30300
1978.70713	0.30070
1976.77856	0.29834
1974.85000	0.29598
1972.92144	0.29377
1970.99287	0.29180
1969.06431	0.29002
1967.13574	0.28815
1965.20718	0.28593
1963.27861	0.28366
1961.35005	0.28161
1959.42148	0.27964
1957.49292	0.27771
1955.56436	0.27589
1953.63579	0.27411
1951.70723	0.27223
1949.77866	0.27044
1947.85010	0.26899
1945.92153	0.26783
1943.99297	0.26683
1942.06440	0.26560
1940.13584	0.26367
1938.20728	0.26161
1936.27871	0.25997
1934.35015	0.25861
1932.42158	0.25740
1930.49302	0.25619
1928.56445	0.25497
1926.63589	0.25392
1924.70732	0.25335
1922.77876	0.25298
1920.85020	0.25220
1918.92163	0.25130
1916.99307	0.25022
1915.06450	0.24865
1913.13594	0.24730
1911.20737	0.24670
1909.27881	0.24639
1907.35024	0.24571
1905.42168	0.24469
1903.49312	0.24382
1901.56455	0.24321
1899.63599	0.24267
1897.70742	0.24225
1895.77886	0.24204
1893.85029	0.24181
1891.92173	0.24154
1889.99316	0.24158
1888.06460	0.24136
1886.13604	0.24065
1884.20747	0.24001
1882.27891	0.23956
1880.35034	0.23930
1878.42178	0.23922
1876.49321	0.23920
1874.56465	0.23916
1872.63608	0.23944
1870.70752	0.24063
1868.77896	0.24250
1866.85039	0.24290
1864.92183	0.24166
1862.99326	0.24074
1861.06470	0.24064
1859.13613	0.24098
1857.20757	0.24128
1855.27900	0.24161
1853.35044	0.24210
1851.42187	0.24273
1849.49331	0.24354
1847.56475	0.24471
1845.63618	0.24635
1843.70762	0.24777
1841.77905	0.24784
1839.85049	0.24747
1837.92192	0.24803
1835.99336	0.24900
1834.06479	0.24987
1832.13623	0.25127
1830.20767	0.25370
1828.27910	0.25562
1826.35054	0.25627
1824.42197	0.25706
1822.49341	0.25770
1820.56484	0.25829
1818.63628	0.25942
1816.70771	0.26099
1814.77915	0.26265
1812.85059	0.26475
1810.92202	0.26738
1808.99346	0.26958
1807.06489	0.27113
1805.13633	0.27277
1803.20776	0.27524
1801.27920	0.27848
1799.35063	0.28168
1797.42207	0.28412
1795.49351	0.28665
1793.56494	0.29019
1791.63638	0.29435
1789.70781	0.29689
1787.77925	0.29828
1785.85068	0.30100
1783.92212	0.30491
1781.99355	0.30918
1780.06499	0.31357
1778.13643	0.31783
1776.20786	0.32217
1774.27930	0.32768
1772.35073	0.33499
1770.42217	0.34114
1768.49360	0.34500
1766.56504	0.34906
1764.63647	0.35406
1762.70791	0.36042
1760.77935	0.36834
1758.85078	0.37524
1756.92222	0.38227
1754.99365	0.39003
1753.06509	0.39729
1751.13652	0.40680
1749.20796	0.41885
1747.27939	0.42937
1745.35083	0.43771
1743.42227	0.44674
1741.49370	0.45725
1739.56514	0.46982
1737.63657	0.48227
1735.70801	0.49367
1733.77944	0.51137
1731.85088	0.53084
1729.92231	0.54466
1727.99375	0.55912
1726.06519	0.57549
1724.13662	0.59401
1722.20806	0.61404
1720.27949	0.63294
1718.35093	0.65629
1716.42236	0.69049
1714.49380	0.72030
1712.56523	0.74284
1710.63667	0.76544
1708.70811	0.79086
1706.77954	0.82046
1704.85098	0.85561
1702.92241	0.88610
1700.99385	0.91571
1699.06528	0.96092
1697.13672	1.00222
1695.20815	1.04263
1693.27959	1.08059
1691.35103	1.11079
1689.42246	1.14630
1687.49390	1.18386
1685.56533	1.22015
1683.63677	1.27738
1681.70820	1.33563
1679.77964	1.37043
1677.85107	1.40386
1675.92251	1.44323
1673.99395	1.49279
1672.06538	1.53653
1670.13682	1.57882
1668.20825	1.63374
1666.27969	1.67602
1664.35112	1.71071
1662.42256	1.75434
1660.49399	1.80332
1658.56543	1.84134
1656.63687	1.87441
1654.70830	1.90777
1652.77974	1.96338
1650.85117	2.01558
1648.92261	2.03507
1646.99404	2.06401
1645.06548	2.09695
1643.13691	2.11830
1641.20835	2.13224
1639.27979	2.14671
1637.35122	2.15798
1635.42266	2.16263
1633.49409	2.15810
1631.56553	2.14594
1629.63696	2.13208
1627.70840	2.11094
1625.77983	2.08711
1623.85127	2.05421
1621.92271	2.01112
1619.99414	1.97220
1618.06558	1.93349
1616.13701	1.87551
1614.20845	1.81553
1612.27988	1.77112
1610.35132	1.72488
1608.42275	1.67356
1606.49419	1.62196
1604.56562	1.57462
1602.63706	1.52917
1600.70850	1.48415
1598.77993	1.44197
1596.85137	1.40228
1594.92280	1.36403
1592.99424	1.32679
1591.06567	1.29208
1589.13711	1.25902
1587.20854	1.22802
1585.27998	1.19916
1583.35142	1.17162
1581.42285	1.14597
1579.49429	1.12427
1577.56572	1.10523
1575.63716	1.07998
1573.70859	1.05549
1571.78003	1.03967
1569.85146	1.02350
1567.92290	1.00378
1565.99434	0.98707
1564.06577	0.97283
1562.13721	0.96145
1560.20864	0.95326
1558.28008	0.93689
1556.35151	0.91767
1554.42295	0.90575
1552.49438	0.89489
1550.56582	0.88427
1548.63726	0.87334
1546.70869	0.86433
1544.78013	0.85749
1542.85156	0.85109
1540.92300	0.84283
1538.99443	0.82724
1537.06587	0.81433
1535.13730	0.80724
1533.20874	0.79928
1531.28018	0.78953
1529.35161	0.78240
1527.42305	0.77691
1525.49448	0.77116
1523.56592	0.76581
1521.63735	0.76045
1519.70879	0.75338
1517.78022	0.74689
1515.85166	0.74008
1513.92310	0.73311
1511.99453	0.72811
1510.06597	0.72527
1508.13740	0.72405
1506.20884	0.71842
1504.28027	0.70929
1502.35171	0.70408
1500.42314	0.70110
1498.49458	0.69886
1496.56602	0.69558
1494.63745	0.69121
1492.70889	0.68811
1490.78032	0.68675
1488.85176	0.68481
1486.92319	0.68050
1484.99463	0.67603
1483.06606	0.67285
1481.13750	0.67057
1479.20894	0.66852
1477.28037	0.66694
1475.35181	0.66610
1473.42324	0.66532
1471.49468	0.66204
1469.56611	0.65718
1467.63755	0.65378
1465.70898	0.65182
1463.78042	0.64990
1461.85186	0.64787
1459.92329	0.64727
1457.99473	0.64798
1456.06616	0.64575
1454.13760	0.64068
1452.20903	0.63710
1450.28047	0.63465
1448.35190	0.63259
1446.42334	0.63019
1444.49478	0.62775
1442.56621	0.62583
1440.63765	0.62444
1438.70908	0.62385
1436.78052	0.62354
1434.85195	0.62187
1432.92339	0.61978
1430.99482	0.61860
1429.06626	0.61761
1427.13770	0.61624
1425.20913	0.61515
1423.28057	0.61436
1421.35200	0.61362
1419.42344	0.61320
1417.49487	0.61187
1415.56631	0.60914
1413.63774	0.60673
1411.70918	0.60489
1409.78062	0.60316
1407.85205	0.60158
1405.92349	0.60048
1403.99492	0.59924
1402.06636	0.59760
1400.13779	0.59657
1398.20923	0.59601
1396.28066	0.59489
1394.35210	0.59280
1392.42354	0.59013
1390.49497	0.58804
1388.56641	0.58699
1386.63784	0.58592
1384.70928	0.58395
1382.78071	0.58199
1380.85215	0.58065
1378.92358	0.57981
1376.99502	0.57936
1375.06646	0.57917
1373.13789	0.57846
1371.20933	0.57718
1369.28076	0.57621
1367.35220	0.57547
1365.42363	0.57480
1363.49507	0.57441
1361.56650	0.57359
1359.63794	0.57195
1357.70937	0.57051
1355.78081	0.56956
1353.85225	0.56866
1351.92368	0.56761
1349.99512	0.56654
1348.06655	0.56548
1346.13799	0.56437
1344.20942	0.56334
1342.28086	0.56281
1340.35229	0.56277
1338.42373	0.56213
1336.49517	0.56053
1334.56660	0.55892
1332.63804	0.55765
1330.70947	0.55660
1328.78091	0.55579
1326.85234	0.55523
1324.92378	0.55478
1322.99521	0.55429
1321.06665	0.55380
1319.13809	0.55338
1317.20952	0.55283
1315.28096	0.55201
1313.35239	0.55098
1311.42383	0.54983
1309.49526	0.54865
1307.56670	0.54755
1305.63813	0.54660
1303.70957	0.54577
1301.78101	0.54492
1299.85244	0.54392
1297.92388	0.54278
1295.99531	0.54163
1294.06675	0.54077
1292.13818	0.54010
1290.20962	0.53940
1288.28105	0.53873
1286.35249	0.53803
1284.42393	0.53735
1282.49536	0.53687
1280.56680	0.53648
1278.63823	0.53597
1276.70967	0.53539
1274.78110	0.53490
1272.85254	0.53446
1270.92397	0.53391
1268.99541	0.53334
1267.06685	0.53296
1265.13828	0.53261
1263.20972	0.53211
1261.28115	0.53171
1259.35259	0.53146
1257.42402	0.53107
1255.49546	0.53060
1253.56689	0.53034
1251.63833	0.53028
1249.70977	0.53018
1247.78120	0.52988
1245.85264	0.52941
1243.92407	0.52895
1241.99551	0.52860
1240.06694	0.52814
1238.13838	0.52747
1236.20981	0.52678
1234.28125	0.52607
1232.35269	0.52530
1230.42412	0.52453
1228.49556	0.52387
1226.56699	0.52323
1224.63843	0.52252
1222.70986	0.52172
1220.78130	0.52084
1218.85273	0.51998
1216.92417	0.51930
1214.99561	0.51870
1213.06704	0.51803
1211.13848	0.51749
1209.20991	0.51703
1207.28135	0.51634
1205.35278	0.51564
1203.42422	0.51512
1201.49565	0.51454
1199.56709	0.51384
1197.63853	0.51324
1195.70996	0.51270
1193.78140	0.51212
1191.85283	0.51148
1189.92427	0.51089
1187.99570	0.51042
1186.06714	0.51003
1184.13857	0.50967
1182.21001	0.50952
1180.28145	0.50970
1178.35288	0.51006
1176.42432	0.51050
1174.49575	0.51108
1172.56719	0.51174
1170.63862	0.51238
1168.71006	0.51314
1166.78149	0.51395
1164.85293	0.51458
1162.92437	0.51508
1160.99580	0.51551
1159.06724	0.51577
1157.13867	0.51562
1155.21011	0.51488
1153.28154	0.51364
1151.35298	0.51214
1149.42441	0.51024
1147.49585	0.50782
1145.56729	0.50521
1143.63872	0.50269
1141.71016	0.50035
1139.78159	0.49824
1137.85303	0.49643
1135.92446	0.49486
1133.99590	0.49340
1132.06733	0.49215
1130.13877	0.49119
1128.21021	0.49038
1126.28164	0.48966
1124.35308	0.48895
1122.42451	0.48819
1120.49595	0.48768
1118.56738	0.48746
1116.63882	0.48722
1114.71025	0.48711
1112.78169	0.48743
1110.85312	0.48800
1108.92456	0.48875
1106.99600	0.48970
1105.06743	0.49064
1103.13887	0.49160
1101.21030	0.49281
1099.28174	0.49449
1097.35317	0.49671
1095.42461	0.49949
1093.49604	0.50304
1091.56748	0.50764
1089.63892	0.51334
1087.71035	0.52001
1085.78179	0.52754
1083.85322	0.53550
1081.92466	0.54286
1079.99609	0.54851
1078.06753	0.55159
1076.13896	0.55191
1074.21040	0.54975
1072.28184	0.54526
1070.35327	0.53903
1068.42471	0.53210
1066.49614	0.52531
1064.56758	0.51904
1062.63901	0.51358
1060.71045	0.50915
1058.78188	0.50532
1056.85332	0.50173
1054.92476	0.49853
1052.99619	0.49570
1051.06763	0.49329
1049.13906	0.49175
1047.21050	0.49114
1045.28193	0.49099
1043.35337	0.49080
1041.42480	0.49045
1039.49624	0.49012
1037.56768	0.48993
1035.63911	0.48984
1033.71055	0.48968
1031.78198	0.48935
1029.85342	0.48868
1027.92485	0.48763
1025.99629	0.48657
1024.06772	0.48594
1022.13916	0.48584
1020.21060	0.48621
1018.28203	0.48688
1016.35347	0.48737
1014.42490	0.48754
1012.49634	0.48776
1010.56777	0.48829
1008.63921	0.48896
1006.71064	0.48975
1004.78208	0.49095
1002.85352	0.49278
1000.92495	0.49531
998.99639	0.49857
997.06782	0.50237
995.13926	0.50650
993.21069	0.51048
991.28213	0.51354
989.35356	0.51553
987.42500	0.51671
985.49644	0.51738
983.56787	0.51772
981.63931	0.51810
979.71074	0.51919
977.78218	0.52118
975.85361	0.52357
973.92505	0.52615
971.99648	0.52920
970.06792	0.53267
968.13936	0.53639
966.21079	0.54032
964.28223	0.54448
962.35366	0.54901
960.42510	0.55409
958.49653	0.55966
956.56797	0.56546
954.63940	0.57146
952.71084	0.57755
950.78228	0.58362
948.85371	0.58977
946.92515	0.59596
944.99658	0.60213
943.06802	0.60816
941.13945	0.61385
939.21089	0.61936
937.28232	0.62501
935.35376	0.63087
933.42520	0.63662
931.49663	0.64207
929.56807	0.64765
927.63950	0.65362
925.71094	0.65983
923.78237	0.66623
921.85381	0.67241
919.92524	0.67854
917.99668	0.68528
916.06812	0.69213
914.13955	0.69882
912.21099	0.70640
910.28242	0.71521
908.35386	0.72429
906.42529	0.73310
904.49673	0.74176
902.56816	0.75023
900.63960	0.75901
898.71104	0.76836
896.78247	0.77792
894.85391	0.78845
892.92534	0.80003
890.99678	0.81088
889.06821	0.82065
887.13965	0.83039
885.21108	0.84084
883.28252	0.85230
881.35396	0.86418
879.42539	0.87557
877.49683	0.88627
875.56826	0.89725
873.63970	0.90868
871.71113	0.91934
869.78257	0.93045
867.85400	0.94346
865.92544	0.95597
863.99687	0.96630
862.06831	0.97671
860.13975	0.98850
858.21118	1.00013
856.28262	1.01169
854.35405	1.02431
852.42549	1.03571
850.49692	1.04549
848.56836	1.05750
846.63979	1.07131
844.71123	1.08313
842.78267	1.09330
840.85410	1.10403
838.92554	1.11490
836.99697	1.12485
835.06841	1.13362
833.13984	1.14291
831.21128	1.15535
829.28271	1.17045
827.35415	1.18595
825.42559	1.19897
823.49702	1.20923
821.56846	1.22014
819.63989	1.23187
817.71133	1.24259
815.78276	1.25182
813.85420	1.25646
811.92563	1.26323
809.99707	1.28257
808.06851	1.30662
806.13994	1.32287
804.21138	1.32692
802.28281	1.33250
800.35425	1.35645
798.42568	1.38708
796.49712	1.40771
794.56855	1.42774
792.63999	1.43544
790.71143	1.41545
788.78286	1.41818
786.85430	1.45001
784.92573	1.43579
782.99717	1.36801
781.06860	1.33154
779.14004	1.34076
777.21147	1.36716
775.28291	1.40810
773.35435	1.45227
771.42578	1.47294
769.49722	1.44361
767.56865	1.42599
765.64009	1.39150
763.71152	1.31268
761.78296	1.23202
759.85439	1.18472
757.92583	1.19695
755.99727	1.27196
754.06870	1.41675
752.14014	1.46744
750.21157	1.25192
748.28301	1.01563
746.35444	0.88911
744.42588	0.87297
742.49731	0.91971
740.56875	0.93179
738.64019	0.90585
736.71162	0.84903
734.78306	0.75904
732.85449	0.73740
730.92593	0.75038
728.99736	0.65581
727.06880	0.50838
725.14023	0.39632
723.21167	0.31636
721.28311	0.20017
719.35454	0.10046
717.42598	0.05809
715.49741	-0.03367
713.56885	-0.15890
711.64028	-0.16717
709.71172	-0.23683
707.78315	-0.57207
705.85459	-0.59798
703.92603	-0.13015
701.99746	-0.02764
700.06890	-0.00684
698.14033	0.07803
696.21177	0.20388
694.28320	0.30072
692.35464	0.31764
690.42607	0.24034
688.49751	0.15254
686.56895	0.13335
684.64038	0.20107
682.71182	0.27830
680.78325	0.25328
678.85469	0.16276
676.92612	0.11447
674.99756	0.13817
673.06899	0.17023
671.14043	0.14545
669.21187	0.21258
667.28330	0.36243
665.35474	0.38502
663.42617	0.29575
661.49761	0.19514
659.56904	0.11418
657.64048	0.10092
655.71191	0.14636
653.78335	0.17638
651.85479	0.15978
649.92622	0.16557
647.99766	0.20388
646.06909	0.18067
644.14053	0.12764
642.21196	0.13291
640.28340	0.17800
638.35483	0.17780
636.42627	0.17118
634.49771	0.18223
632.56914	0.21755
630.64058	0.36008
628.71201	0.59181
626.78345	0.42827
624.85488	0.24523
622.92632	0.20251
620.99775	0.26185
619.06919	0.26663
617.14062	0.15851
615.21206	0.08335
613.28350	0.06361
611.35493	0.09465
609.42637	0.14739
607.49780	0.19988
605.56924	0.26211
603.64067	0.25743
601.71211	0.18383
599.78354	0.14510
597.85498	0.14676
595.92642	0.13538
593.99785	0.11698
592.06929	0.12948
590.14072	0.17784
588.21216	0.21056
586.28359	0.22168
584.35503	0.28546
582.42646	0.40499
580.49790	0.37632
578.56934	0.29274
576.64077	0.27751
574.71221	0.25878
572.78364	0.22813
570.85508	0.22971
568.92651	0.27039
566.99795	0.33847
565.06938	0.31854
563.14082	0.19746
561.21226	0.13689
559.28369	0.14735
557.35513	0.19419
555.42656	0.22274
553.49800	0.19437
551.56943	0.15028
549.64087	0.13308
547.71230	0.16813
545.78374	0.18401
543.85518	0.13298
541.92661	0.12278
539.99805	0.15780
538.06948	0.17176
536.14092	0.17266
534.21235	0.19996
532.28379	0.22978
530.35522	0.20176
528.42666	0.14866
526.49810	0.11034
524.56953	0.12910
522.64097	0.20643
520.71240	0.23661
518.78384	0.16308
516.85527	0.09466
514.92671	0.11484
512.99814	0.19491
511.06958	0.19963
509.14102	0.11487
507.21245	0.11765
505.28389	0.18977
503.35532	0.21170
501.42676	0.15738
499.49819	0.12296
