3997.91411	0.06773
3995.98555	0.06867
3994.05698	0.06957
3992.12842	0.06990
3990.19985	0.07007
3988.27129	0.07058
3986.34272	0.07099
3984.41416	0.07098
3982.48560	0.07094
3980.55703	0.07101
3978.62847	0.07106
3976.69990	0.07124
3974.77134	0.07124
3972.84277	0.07125
3970.91421	0.07177
3968.98564	0.07209
3967.05708	0.07193
3965.12852	0.07198
3963.19995	0.07235
3961.27139	0.07263
3959.34282	0.07263
3957.41426	0.07254
3955.48569	0.07257
3953.55713	0.07260
3951.62856	0.07263
3949.70000	0.07271
3947.77144	0.07249
3945.84287	0.07208
3943.91431	0.07206
3941.98574	0.07239
3940.05718	0.07267
3938.12861	0.07270
3936.20005	0.07227
3934.27148	0.07185
3932.34292	0.07229
3930.41436	0.07306
3928.48579	0.07294
3926.55723	0.07258
3924.62866	0.07288
3922.70010	0.07313
3920.77153	0.07291
3918.84297	0.07281
3916.91440	0.07288
3914.98584	0.07273
3913.05728	0.07239
3911.12871	0.07218
3909.20015	0.07198
3907.27158	0.07175
3905.34302	0.07175
3903.41445	0.07219
3901.48589	0.07283
3899.55732	0.07325
3897.62876	0.07304
3895.70020	0.07248
3893.77163	0.07218
3891.84307	0.07210
3889.91450	0.07183
3887.98594	0.07155
3886.05737	0.07190
3884.12881	0.07274
3882.20024	0.07316
3880.27168	0.07311
3878.34312	0.07286
3876.41455	0.07270
3874.48599	0.07299
3872.55742	0.07357
3870.62886	0.07426
3868.70029	0.07496
3866.77173	0.07513
3864.84316	0.07523
3862.91460	0.07567
3860.98604	0.07552
3859.05747	0.07479
3857.12891	0.07439
3855.20034	0.07482
3853.27178	0.07634
3851.34321	0.07783
3849.41465	0.07783
3847.48608	0.07763
3845.55752	0.07791
3843.62896	0.07882
3841.70039	0.08018
3839.77183	0.08146
3837.84326	0.08246
3835.91470	0.08298
3833.98613	0.08341
3832.05757	0.08405
3830.12900	0.08426
3828.20044	0.08410
3826.27187	0.08438
3824.34331	0.08484
3822.41475	0.08555
3820.48618	0.08781
3818.55762	0.09012
3816.62905	0.09086
3814.70049	0.09121
3812.77192	0.09105
3810.84336	0.09088
3808.91479	0.09154
3806.98623	0.09326
3805.05767	0.09512
3803.12910	0.09641
3801.20054	0.09843
3799.27197	0.10052
3797.34341	0.10103
3795.41484	0.10137
3793.48628	0.10183
3791.55771	0.10223
3789.62915	0.10306
3787.70059	0.10443
3785.77202	0.10624
3783.84346	0.10822
3781.91489	0.10995
3779.98633	0.11169
3778.05776	0.11353
3776.12920	0.11477
3774.20063	0.11583
3772.27207	0.11732
3770.34351	0.11938
3768.41494	0.12170
3766.48638	0.12325
3764.55781	0.12467
3762.62925	0.12656
3760.70068	0.12875
3758.77212	0.13165
3756.84355	0.13470
3754.91499	0.13699
3752.98643	0.13930
3751.05786	0.14300
3749.12930	0.14769
3747.20073	0.15027
3745.27217	0.15212
3743.34360	0.15581
3741.41504	0.15918
3739.48647	0.16114
3737.55791	0.16385
3735.62935	0.16879
3733.70078	0.17520
3731.77222	0.18016
3729.84365	0.18396
3727.91509	0.18778
3725.98652	0.19278
3724.05796	0.19957
3722.12939	0.20724
3720.20083	0.21497
3718.27227	0.22220
3716.34370	0.22930
3714.41514	0.23665
3712.48657	0.24552
3710.55801	0.25842
3708.62944	0.27300
3706.70088	0.28511
3704.77231	0.29627
3702.84375	0.30926
3700.91519	0.32658
3698.98662	0.34564
3697.05806	0.36339
3695.12949	0.38184
3693.20093	0.40133
3691.27236	0.42278
3689.34380	0.45147
3687.41523	0.48747
3685.48667	0.51820
3683.55811	0.54386
3681.62954	0.57139
3679.70098	0.60294
3677.77241	0.63644
3675.84385	0.67628
3673.91528	0.73105
3671.98672	0.77488
3670.05815	0.81322
3668.12959	0.86780
3666.20103	0.91712
3664.27246	0.95732
3662.34390	1.00055
3660.41533	1.04768
3658.48677	1.09424
3656.55820	1.14399
3654.62964	1.20008
3652.70107	1.24632
3650.77251	1.28541
3648.84395	1.34174
3646.91538	1.41336
3644.98682	1.46381
3643.05825	1.50187
3641.12969	1.54172
3639.20112	1.58605
3637.27256	1.63055
3635.34399	1.67399
3633.41543	1.71749
3631.48687	1.75779
3629.55830	1.79827
3627.62974	1.85308
3625.70117	1.90536
3623.77261	1.93973
3621.84404	1.97153
3619.91548	2.00817
3617.98691	2.05478
3616.05835	2.10049
3614.12979	2.13709
3612.20122	2.17508
3610.27266	2.21373
3608.34409	2.25358
3606.41553	2.29753
3604.48696	2.33762
3602.55840	2.37242
3600.62983	2.41044
3598.70127	2.45150
3596.77271	2.49102
3594.84414	2.53242
3592.91558	2.57652
3590.98701	2.61610
3589.05845	2.65079
3587.12988	2.69348
3585.20132	2.74098
3583.27275	2.77977
3581.34419	2.81700
3579.41562	2.85890
3577.48706	2.90313
3575.55850	2.94733
3573.62993	2.99236
3571.70137	3.03451
3569.77280	3.07256
3567.84424	3.11324
3565.91567	3.16570
3563.98711	3.21867
3562.05854	3.26217
3560.12998	3.30344
3558.20142	3.34556
3556.27285	3.38765
3554.34429	3.42933
3552.41572	3.47657
3550.48716	3.52864
3548.55859	3.57749
3546.63003	3.62150
3544.70146	3.66455
3542.77290	3.70983
3540.84434	3.75829
3538.91577	3.80833
3536.98721	3.85532
3535.05864	3.89884
3533.13008	3.94235
3531.20151	3.99028
3529.27295	4.04270
3527.34438	4.09499
3525.41582	4.14075
3523.48726	4.18617
3521.55869	4.24093
3519.63013	4.29428
3517.70156	4.33833
3515.77300	4.37957
3513.84443	4.42278
3511.91587	4.46577
3509.98730	4.51018
3508.05874	4.56043
3506.13018	4.61474
3504.20161	4.66813
3502.27305	4.71646
3500.34448	4.76099
3498.41592	4.80797
3496.48735	4.85844
3494.55879	4.90837
3492.63022	4.95583
3490.70166	4.99863
3488.77310	5.03772
3486.84453	5.07958
3484.91597	5.12965
3482.98740	5.18814
3481.05884	5.24755
3479.13027	5.30268
3477.20171	5.35743
3475.27314	5.40358
3473.34458	5.43643
3471.41602	5.47499
3469.48745	5.52196
3467.55889	5.56075
3465.63032	5.59178
3463.70176	5.63562
3461.77319	5.70365
3459.84463	5.78137
3457.91606	5.84407
3455.98750	5.88645
3454.05894	5.92146
3452.13037	5.96123
3450.20181	6.00722
3448.27324	6.05395
3446.34468	6.10286
3444.41611	6.15504
3442.48755	6.21526
3440.55898	6.28009
3438.63042	6.32684
3436.70186	6.35027
3434.77329	6.38474
3432.84473	6.44851
3430.91616	6.52120
3428.98760	6.58020
3427.05903	6.61592
3425.13047	6.65101
3423.20190	6.68998
3421.27334	6.74401
3419.34478	6.81903
3417.41621	6.86714
3415.48765	6.89251
3413.55908	6.92798
3411.63052	6.96609
3409.70195	7.00042
3407.77339	7.04890
3405.84482	7.10882
3403.91626	7.16452
3401.98770	7.20113
3400.05913	7.23137
3398.13057	7.26908
3396.20200	7.29607
3394.27344	7.31414
3392.34487	7.34124
3390.41631	7.39039
3388.48774	7.40926
3386.55918	7.40998
3384.63062	7.47078
3382.70205	7.55324
3380.77349	7.59422
3378.84492	7.63634
3376.91636	7.68712
3374.98779	7.68803
3373.05923	7.67918
3371.13066	7.69226
3369.20210	7.69905
3367.27354	7.69992
3365.34497	7.73224
3363.41641	7.78862
3361.48784	7.86396
3359.55928	7.96452
3357.63071	7.99783
3355.70215	7.93404
3353.77358	7.84609
3351.84502	7.83496
3349.91646	7.92508
3347.98789	8.02873
3346.05933	8.06261
3344.13076	8.07086
3342.20220	8.09184
3340.27363	8.05918
3338.34507	7.97307
3336.41650	7.89335
3334.48794	7.88878
3332.55937	7.93661
3330.63081	8.00627
3328.70225	8.10682
3326.77368	8.14473
3324.84512	8.06337
3322.91655	7.97148
3320.98799	7.95894
3319.05942	7.97840
3317.13086	7.97666
3315.20229	7.97590
3313.27373	8.00878
3311.34517	8.01795
3309.41660	8.00675
3307.48804	8.06161
3305.55947	8.15457
3303.63091	8.22066
3301.70234	8.28335
3299.77378	8.32413
3297.84521	8.21964
3295.91665	8.08261
3293.98809	8.03271
3292.05952	8.04844
3290.13096	8.07265
3288.20239	8.06246
3286.27383	8.08213
3284.34526	8.10281
3282.41670	8.09047
3280.48813	8.10188
3278.55957	8.13221
3276.63101	8.13771
3274.70244	8.15851
3272.77388	8.23674
3270.84531	8.31111
3268.91675	8.28728
3266.98818	8.18082
3265.05962	8.17204
3263.13105	8.24507
3261.20249	8.20530
3259.27393	8.13313
3257.34536	8.16392
3255.41680	8.19734
3253.48823	8.12679
3251.55967	8.03463
3249.63110	8.04344
3247.70254	8.11212
3245.77397	8.10437
3243.84541	8.06189
3241.91685	8.07235
3239.98828	8.10187
3238.05972	8.05244
3236.13115	7.94263
3234.20259	7.89215
3232.27402	7.94694
3230.34546	8.05184
3228.41689	8.07396
3226.48833	8.03084
3224.55977	8.02148
3222.63120	8.04570
3220.70264	8.09932
3218.77407	8.12649
3216.84551	8.05002
3214.91694	7.92406
3212.98838	7.85728
3211.05981	7.91019
3209.13125	8.00576
3207.20269	7.98064
3205.27412	7.84858
3203.34556	7.72543
3201.41699	7.66195
3199.48843	7.64383
3197.55986	7.62686
3195.63130	7.62103
3193.70273	7.64933
3191.77417	7.67208
3189.84561	7.63991
3187.91704	7.57082
3185.98848	7.53471
3184.05991	7.52735
3182.13135	7.46526
3180.20278	7.36775
3178.27422	7.31010
3176.34565	7.26766
3174.41709	7.17898
3172.48853	7.05277
3170.55996	6.94400
3168.63140	6.87909
3166.70283	6.82294
3164.77427	6.75596
3162.84570	6.71463
3160.91714	6.70452
3158.98857	6.67358
3157.06001	6.60311
3155.13145	6.53462
3153.20288	6.48461
3151.27432	6.43045
3149.34575	6.35008
3147.41719	6.26672
3145.48862	6.20323
3143.56006	6.13865
3141.63149	6.07331
3139.70293	6.01544
3137.77437	5.95595
3135.84580	5.89078
3133.91724	5.81511
3131.98867	5.72902
3130.06011	5.64872
3128.13154	5.58175
3126.20298	5.51382
3124.27441	5.43569
3122.34585	5.35812
3120.41729	5.29305
3118.48872	5.22752
3116.56016	5.15330
3114.63159	5.08322
3112.70303	5.01722
3110.77446	4.94670
3108.84590	4.87381
3106.91733	4.80553
3104.98877	4.74130
3103.06021	4.67583
3101.13164	4.60552
3099.20308	4.53345
3097.27451	4.46738
3095.34595	4.40448
3093.41738	4.33616
3091.48882	4.26580
3089.56025	4.19981
3087.63169	4.13762
3085.70312	4.07862
3083.77456	4.02036
3081.84600	3.95965
3079.91743	3.89745
3077.98887	3.83541
3076.06030	3.77424
3074.13174	3.71528
3072.20317	3.65818
3070.27461	3.60042
3068.34604	3.54260
3066.41748	3.48615
3064.48892	3.42955
3062.56035	3.37203
3060.63179	3.31652
3058.70322	3.26496
3056.77466	3.21478
3054.84609	3.16333
3052.91753	3.11107
3050.98896	3.05907
3049.06040	3.00696
3047.13184	2.95581
3045.20327	2.90712
3043.27471	2.85921
3041.34614	2.81064
3039.41758	2.76300
3037.48901	2.71753
3035.56045	2.67271
3033.63188	2.62752
3031.70332	2.58229
3029.77476	2.53731
3027.84619	2.49374
3025.91763	2.45165
3023.98906	2.40964
3022.06050	2.36764
3020.13193	2.32613
3018.20337	2.28573
3016.27480	2.24665
3014.34624	2.20769
3012.41768	2.16878
3010.48911	2.13075
3008.56055	2.09377
3006.63198	2.05780
3004.70342	2.02233
3002.77485	1.98721
3000.84629	1.95274
2998.91772	1.91912
2996.98916	1.88630
2995.06060	1.85353
2993.13203	1.82069
2991.20347	1.78852
2989.27490	1.75720
2987.34634	1.72680
2985.41777	1.69748
2983.48921	1.66874
2981.56064	1.63992
2979.63208	1.61123
2977.70352	1.58325
2975.77495	1.55600
2973.84639	1.52911
2971.91782	1.50236
2969.98926	1.47583
2968.06069	1.44982
2966.13213	1.42447
2964.20356	1.39954
2962.27500	1.37456
2960.34644	1.34965
2958.41787	1.32544
2956.48931	1.30173
2954.56074	1.27805
2952.63218	1.25463
2950.70361	1.23203
2948.77505	1.21037
2946.84648	1.18893
2944.91792	1.16722
2942.98936	1.14558
2941.06079	1.12439
2939.13223	1.10384
2937.20366	1.08377
2935.27510	1.06352
2933.34653	1.04320
2931.41797	1.02384
2929.48940	1.00552
2927.56084	0.98749
2925.63228	0.96979
2923.70371	0.95276
2921.77515	0.93606
2919.84658	0.91940
2917.91802	0.90315
2915.98945	0.88721
2914.06089	0.87115
2912.13232	0.85542
2910.20376	0.84044
2908.27520	0.82591
2906.34663	0.81182
2904.41807	0.79832
2902.48950	0.78509
2900.56094	0.77198
2898.63237	0.75912
2896.70381	0.74637
2894.77524	0.73372
2892.84668	0.72137
2890.91812	0.70953
2888.98955	0.69845
2887.06099	0.68761
2885.13242	0.67670
2883.20386	0.66611
2881.27529	0.65567
2879.34673	0.64516
2877.41816	0.63480
2875.48960	0.62448
2873.56104	0.61407
2871.63247	0.60359
2869.70391	0.59286
2867.77534	0.58215
2865.84678	0.57174
2863.91821	0.56140
2861.98965	0.55102
2860.06108	0.54089
2858.13252	0.53128
2856.20396	0.52202
2854.27539	0.51291
2852.34683	0.50420
2850.41826	0.49613
2848.48970	0.48817
2846.56113	0.48007
2844.63257	0.47273
2842.70400	0.46640
2840.77544	0.46046
2838.84687	0.45464
2836.91831	0.44869
2834.98975	0.44259
2833.06118	0.43669
2831.13262	0.43096
2829.20405	0.42512
2827.27549	0.41930
2825.34692	0.41350
2823.41836	0.40751
2821.48979	0.40143
2819.56123	0.39551
2817.63267	0.38979
2815.70410	0.38419
2813.77554	0.37862
2811.84697	0.37299
2809.91841	0.36745
2807.98984	0.36221
2806.06128	0.35725
2804.13271	0.35238
2802.20415	0.34747
2800.27559	0.34252
2798.34702	0.33767
2796.41846	0.33301
2794.48989	0.32837
2792.56133	0.32374
2790.63276	0.31935
2788.70420	0.31519
2786.77563	0.31099
2784.84707	0.30663
2782.91851	0.30230
2780.98994	0.29805
2779.06138	0.29406
2777.13281	0.29050
2775.20425	0.28706
2773.27568	0.28338
2771.34712	0.27956
2769.41855	0.27586
2767.48999	0.27240
2765.56143	0.26900
2763.63286	0.26557
2761.70430	0.26232
2759.77573	0.25920
2757.84717	0.25602
2755.91860	0.25290
2753.99004	0.24985
2752.06147	0.24678
2750.13291	0.24378
2748.20435	0.24098
2746.27578	0.23831
2744.34722	0.23566
2742.41865	0.23308
2740.49009	0.23054
2738.56152	0.22802
2736.63296	0.22550
2734.70439	0.22304
2732.77583	0.22067
2730.84727	0.21834
2728.91870	0.21607
2726.99014	0.21401
2725.06157	0.21206
2723.13301	0.21006
2721.20444	0.20795
2719.27588	0.20585
2717.34731	0.20394
2715.41875	0.20219
2713.49019	0.20045
2711.56162	0.19868
2709.63306	0.19681
2707.70449	0.19490
2705.77593	0.19317
2703.84736	0.19161
2701.91880	0.19005
2699.99023	0.18849
2698.06167	0.18699
2696.13311	0.18559
2694.20454	0.18436
2692.27598	0.18307
2690.34741	0.18161
2688.41885	0.18022
2686.49028	0.17895
2684.56172	0.17777
2682.63315	0.17661
2680.70459	0.17536
2678.77603	0.17406
2676.84746	0.17295
2674.91890	0.17203
2672.99033	0.17110
2671.06177	0.17000
2669.13320	0.16879
2667.20464	0.16763
2665.27607	0.16662
2663.34751	0.16573
2661.41895	0.16494
2659.49038	0.16429
2657.56182	0.16369
2655.63325	0.16298
2653.70469	0.16224
2651.77612	0.16164
2649.84756	0.16106
2647.91899	0.16032
2645.99043	0.15963
2644.06187	0.15911
2642.13330	0.15856
2640.20474	0.15794
2638.27617	0.15742
2636.34761	0.15702
2634.41904	0.15658
2632.49048	0.15611
2630.56191	0.15567
2628.63335	0.15526
2626.70479	0.15495
2624.77622	0.15474
2622.84766	0.15448
2620.91909	0.15417
2618.99053	0.15393
2617.06196	0.15374
2615.13340	0.15348
2613.20483	0.15316
2611.27627	0.15294
2609.34771	0.15295
2607.41914	0.15311
2605.49058	0.15325
2603.56201	0.15331
2601.63345	0.15325
2599.70488	0.15313
2597.77632	0.15305
2595.84775	0.15309
2593.91919	0.15324
2591.99062	0.15344
2590.06206	0.15366
2588.13350	0.15384
2586.20493	0.15391
2584.27637	0.15407
2582.34780	0.15438
2580.41924	0.15475
2578.49067	0.15507
2576.56211	0.15526
2574.63354	0.15536
2572.70498	0.15550
2570.77642	0.15573
2568.84785	0.15621
2566.91929	0.15689
2564.99072	0.15749
2563.06216	0.15796
2561.13359	0.15837
2559.20503	0.15871
2557.27646	0.15907
2555.34790	0.15956
2553.41934	0.16017
2551.49077	0.16073
2549.56221	0.16119
2547.63364	0.16170
2545.70508	0.16237
2543.77651	0.16309
2541.84795	0.16371
2539.91938	0.16432
2537.99082	0.16502
2536.06226	0.16565
2534.13369	0.16621
2532.20513	0.16687
2530.27656	0.16754
2528.34800	0.16811
2526.41943	0.16873
2524.49087	0.16961
2522.56230	0.17063
2520.63374	0.17146
2518.70518	0.17209
2516.77661	0.17269
2514.84805	0.17338
2512.91948	0.17418
2510.99092	0.17507
2509.06235	0.17595
2507.13379	0.17679
2505.20522	0.17764
2503.27666	0.17850
2501.34810	0.17935
2499.41953	0.18023
2497.49097	0.18110
2495.56240	0.18198
2493.63384	0.18286
2491.70527	0.18364
2489.77671	0.18447
2487.84814	0.18538
2485.91958	0.18625
2483.99102	0.18709
2482.06245	0.18802
2480.13389	0.18897
2478.20532	0.18987
2476.27676	0.19070
2474.34819	0.19152
2472.41963	0.19241
2470.49106	0.19336
2468.56250	0.19440
2466.63394	0.19542
2464.70537	0.19623
2462.77681	0.19707
2460.84824	0.19815
2458.91968	0.19929
2456.99111	0.20034
2455.06255	0.20131
2453.13398	0.20221
2451.20542	0.20308
2449.27686	0.20400
2447.34829	0.20504
2445.41973	0.20604
2443.49116	0.20696
2441.56260	0.20794
2439.63403	0.20903
2437.70547	0.21014
2435.77690	0.21121
2433.84834	0.21213
2431.91978	0.21303
2429.99121	0.21412
2428.06265	0.21535
2426.13408	0.21658
2424.20552	0.21770
2422.27695	0.21874
2420.34839	0.21982
2418.41982	0.22091
2416.49126	0.22198
2414.56270	0.22311
2412.63413	0.22427
2410.70557	0.22546
2408.77700	0.22668
2406.84844	0.22791
2404.91987	0.22908
2402.99131	0.23019
2401.06274	0.23139
2399.13418	0.23267
2397.20562	0.23389
2395.27705	0.23506
2393.34849	0.23634
2391.41992	0.23769
2389.49136	0.23892
2387.56279	0.23999
2385.63423	0.24106
2383.70566	0.24225
2381.77710	0.24360
2379.84854	0.24508
2377.91997	0.24660
2375.99141	0.24799
2374.06284	0.24910
2372.13428	0.25028
2370.20571	0.25216
2368.27715	0.25427
2366.34858	0.25571
2364.42002	0.25697
2362.49146	0.25832
2360.56289	0.25977
2358.63433	0.26259
2356.70576	0.26588
2354.77720	0.26802
2352.84863	0.26948
2350.92007	0.27028
2348.99150	0.27067
2347.06294	0.27127
2345.13437	0.27235
2343.20581	0.27378
2341.27725	0.27565
2339.34868	0.27757
2337.42012	0.27891
2335.49155	0.28046
2333.56299	0.28219
2331.63442	0.28383
2329.70586	0.28609
2327.77729	0.28872
2325.84873	0.29060
2323.92017	0.29201
2321.99160	0.29353
2320.06304	0.29494
2318.13447	0.29620
2316.20591	0.29762
2314.27734	0.29923
2312.34878	0.30093
2310.42021	0.30269
2308.49165	0.30455
2306.56309	0.30650
2304.63452	0.30846
2302.70596	0.31017
2300.77739	0.31171
2298.84883	0.31343
2296.92026	0.31541
2294.99170	0.31746
2293.06313	0.31945
2291.13457	0.32136
2289.20601	0.32325
2287.27744	0.32518
2285.34888	0.32705
2283.42031	0.32890
2281.49175	0.33088
2279.56318	0.33298
2277.63462	0.33510
2275.70605	0.33723
2273.77749	0.33927
2271.84893	0.34123
2269.92036	0.34322
2267.99180	0.34531
2266.06323	0.34746
2264.13467	0.34969
2262.20610	0.35203
2260.27754	0.35436
2258.34897	0.35653
2256.42041	0.35856
2254.49185	0.36065
2252.56328	0.36291
2250.63472	0.36527
2248.70615	0.36758
2246.77759	0.36973
2244.84902	0.37182
2242.92046	0.37405
2240.99189	0.37629
2239.06333	0.37845
2237.13477	0.38066
2235.20620	0.38290
2233.27764	0.38508
2231.34907	0.38722
2229.42051	0.38942
2227.49194	0.39179
2225.56338	0.39417
2223.63481	0.39641
2221.70625	0.39853
2219.77769	0.40062
2217.84912	0.40275
2215.92056	0.40499
2213.99199	0.40736
2212.06343	0.40968
2210.13486	0.41181
2208.20630	0.41383
2206.27773	0.41593
2204.34917	0.41810
2202.42061	0.42020
2200.49204	0.42217
2198.56348	0.42405
2196.63491	0.42594
2194.70635	0.42797
2192.77778	0.43016
2190.84922	0.43221
2188.92065	0.43403
2186.99209	0.43575
2185.06353	0.43745
2183.13496	0.43918
2181.20640	0.44098
2179.27783	0.44271
2177.34927	0.44435
2175.42070	0.44594
2173.49214	0.44752
2171.56357	0.44905
2169.63501	0.45045
2167.70645	0.45171
2165.77788	0.45289
2163.84932	0.45411
2161.92075	0.45539
2159.99219	0.45651
2158.06362	0.45744
2156.13506	0.45842
2154.20649	0.45948
2152.27793	0.46039
2150.34937	0.46108
2148.42080	0.46166
2146.49224	0.46226
2144.56367	0.46288
2142.63511	0.46340
2140.70654	0.46369
2138.77798	0.46383
2136.84941	0.46403
2134.92085	0.46425
2132.99229	0.46427
2131.06372	0.46413
2129.13516	0.46401
2127.20659	0.46390
2125.27803	0.46372
2123.34946	0.46340
2121.42090	0.46289
2119.49233	0.46232
2117.56377	0.46168
2115.63521	0.46089
2113.70664	0.46003
2111.77808	0.45919
2109.84951	0.45832
2107.92095	0.45738
2105.99238	0.45636
2104.06382	0.45528
2102.13525	0.45404
2100.20669	0.45265
2098.27812	0.45125
2096.34956	0.44986
2094.42100	0.44839
2092.49243	0.44680
2090.56387	0.44509
2088.63530	0.44328
2086.70674	0.44149
2084.77817	0.43971
2082.84961	0.43784
2080.92104	0.43588
2078.99248	0.43386
2077.06392	0.43173
2075.13535	0.42949
2073.20679	0.42720
2071.27822	0.42485
2069.34966	0.42258
2067.42109	0.42046
2065.49253	0.41830
2063.56396	0.41600
2061.63540	0.41359
2059.70684	0.41101
2057.77827	0.40834
2055.84971	0.40574
2053.92114	0.40321
2051.99258	0.40066
2050.06401	0.39799
2048.13545	0.39523
2046.20688	0.39252
2044.27832	0.38986
2042.34976	0.38714
2040.42119	0.38438
2038.49263	0.38160
2036.56406	0.37880
2034.63550	0.37599
2032.70693	0.37321
2030.77837	0.37055
2028.84980	0.36788
2026.92124	0.36512
2024.99268	0.36233
2023.06411	0.35953
2021.13555	0.35664
2019.20698	0.35381
2017.27842	0.35109
2015.34985	0.34831
2013.42129	0.34553
2011.49272	0.34285
2009.56416	0.34015
2007.63560	0.33732
2005.70703	0.33446
2003.77847	0.33168
2001.84990	0.32894
1999.92134	0.32624
1997.99277	0.32365
1996.06421	0.32112
1994.13564	0.31857
1992.20708	0.31604
1990.27852	0.31355
1988.34995	0.31112
1986.42139	0.30862
1984.49282	0.30601
1982.56426	0.30344
1980.63569	0.30103
1978.70713	0.29875
1976.77856	0.29646
1974.85000	0.29417
1972.92144	0.29193
1970.99287	0.28980
1969.06431	0.28777
1967.13574	0.28576
1965.20718	0.28365
1963.27861	0.28157
1961.35005	0.27965
1959.42148	0.27775
1957.49292	0.27583
1955.56436	0.27403
1953.63579	0.27235
1951.70723	0.27062
1949.77866	0.26880
1947.85010	0.26705
1945.92153	0.26547
1943.99297	0.26407
1942.06440	0.26273
1940.13584	0.26122
1938.20728	0.25961
1936.27871	0.25806
1934.35015	0.25665
1932.42158	0.25542
1930.49302	0.25424
1928.56445	0.25306
1926.63589	0.25185
1924.70732	0.25077
1922.77876	0.24983
1920.85020	0.24885
1918.92163	0.24788
1916.99307	0.24698
1915.06450	0.24604
1913.13594	0.24514
1911.20737	0.24442
1909.27881	0.24373
1907.35024	0.24298
1905.42168	0.24226
1903.49312	0.24165
1901.56455	0.24111
1899.63599	0.24060
1897.70742	0.24017
1895.77886	0.23983
1893.85029	0.23950
1891.92173	0.23908
1889.99316	0.23877
1888.06460	0.23853
1886.13604	0.23819
1884.20747	0.23783
1882.27891	0.23750
1880.35034	0.23729
1878.42178	0.23724
1876.49321	0.23726
1874.56465	0.23725
1872.63608	0.23736
1870.70752	0.23763
1868.77896	0.23809
1866.85039	0.23833
1864.92183	0.23823
1862.99326	0.23824
1861.06470	0.23849
1859.13613	0.23888
1857.20757	0.23921
1855.27900	0.23954
1853.35044	0.23994
1851.42187	0.24051
1849.49331	0.24115
1847.56475	0.24178
1845.63618	0.24254
1843.70762	0.24357
1841.77905	0.24438
1839.85049	0.24478
1837.92192	0.24545
1835.99336	0.24642
1834.06479	0.24734
1832.13623	0.24818
1830.20767	0.24952
1828.27910	0.25115
1826.35054	0.25228
1824.42197	0.25348
1822.49341	0.25474
1820.56484	0.25597
1818.63628	0.25736
1816.70771	0.25900
1814.77915	0.26062
1812.85059	0.26233
1810.92202	0.26432
1808.99346	0.26634
1807.06489	0.26822
1805.13633	0.27008
1803.20776	0.27226
1801.27920	0.27482
1799.35063	0.27774
1797.42207	0.28033
1795.49351	0.28265
1793.56494	0.28536
1791.63638	0.28910
1789.70781	0.29272
1787.77925	0.29530
1785.85068	0.29837
1783.92212	0.30214
1781.99355	0.30606
1780.06499	0.31021
1778.13643	0.31454
1776.20786	0.31850
1774.27930	0.32262
1772.35073	0.32843
1770.42217	0.33503
1768.49360	0.34047
1766.56504	0.34563
1764.63647	0.35089
1762.70791	0.35669
1760.77935	0.36415
1758.85078	0.37121
1756.92222	0.37835
1754.99365	0.38623
1753.06509	0.39326
1751.13652	0.40140
1749.20796	0.41186
1747.27939	0.42235
1745.35083	0.43139
1743.42227	0.44082
1741.49370	0.45139
1739.56514	0.46403
1737.63657	0.47656
1735.70801	0.48723
1733.77944	0.50365
1731.85088	0.52369
1729.92231	0.53918
1727.99375	0.55494
1726.06519	0.57182
1724.13662	0.59026
1722.20806	0.61033
1720.27949	0.62865
1718.35093	0.64984
1716.42236	0.68228
1714.49380	0.71364
1712.56523	0.73843
1710.63667	0.76208
1708.70811	0.78738
1706.77954	0.81635
1704.85098	0.85138
1702.92241	0.88219
1700.99385	0.91161
1699.06528	0.95661
1697.13672	0.99890
1695.20815	1.04229
1693.27959	1.08365
1691.35103	1.11597
1689.42246	1.15351
1687.49390	1.19347
1685.56533	1.23144
1683.63677	1.29159
1681.70820	1.35519
1679.77964	1.39408
1677.85107	1.43056
1675.92251	1.47264
1673.99395	1.52637
1672.06538	1.57424
1670.13682	1.62017
1668.20825	1.68182
1666.27969	1.73084
1664.35112	1.77028
1662.42256	1.82025
1660.49399	1.87894
1658.56543	1.92322
1656.63687	1.95783
1654.70830	1.99144
1652.77974	2.05404
1650.85117	2.11426
1648.92261	2.13103
1646.99404	2.15577
1645.06548	2.18722
1643.13691	2.20916
1641.20835	2.22168
1639.27979	2.23225
1637.35122	2.23897
1635.42266	2.24030
1633.49409	2.23561
1631.56553	2.22535
1629.63696	2.21125
1627.70840	2.18495
1625.77983	2.15471
1623.85127	2.11592
1621.92271	2.06825
1619.99414	2.02739
1618.06558	1.98700
1616.13701	1.92593
1614.20845	1.86384
1612.27988	1.81834
1610.35132	1.77002
1608.42275	1.71580
1606.49419	1.66186
1604.56562	1.61319
1602.63706	1.56661
1600.70850	1.52039
1598.77993	1.47692
1596.85137	1.43580
1594.92280	1.39624
1592.99424	1.35816
1591.06567	1.32326
1589.13711	1.29042
1587.20854	1.25952
1585.27998	1.23054
1583.35142	1.20320
1581.42285	1.17808
1579.49429	1.15651
1577.56572	1.13692
1575.63716	1.11254
1573.70859	1.09135
1571.78003	1.07784
1569.85146	1.06321
1567.92290	1.04643
1565.99434	1.03377
1564.06577	1.02337
1562.13721	1.01458
1560.20864	1.00796
1558.28008	0.99871
1556.35151	0.99028
1554.42295	0.98467
1552.49438	0.97908
1550.56582	0.97279
1548.63726	0.96523
1546.70869	0.95761
1544.78013	0.94920
1542.85156	0.93891
1540.92300	0.92501
1538.99443	0.90423
1537.06587	0.88956
1535.13730	0.87965
1533.20874	0.86628
1531.28018	0.85207
1529.35161	0.84202
1527.42305	0.83265
1525.49448	0.82300
1523.56592	0.81468
1521.63735	0.80625
1519.70879	0.79724
1517.78022	0.78964
1515.85166	0.78121
1513.92310	0.77283
1511.99453	0.76592
1510.06597	0.75972
1508.13740	0.75365
1506.20884	0.74402
1504.28027	0.73549
1502.35171	0.73040
1500.42314	0.72588
1498.49458	0.72112
1496.56602	0.71573
1494.63745	0.71055
1492.70889	0.70645
1490.78032	0.70287
1488.85176	0.69891
1486.92319	0.69495
1484.99463	0.69159
1483.06606	0.68884
1481.13750	0.68641
1479.20894	0.68421
1477.28037	0.68254
1475.35181	0.68136
1473.42324	0.68024
1471.49468	0.67835
1469.56611	0.67577
1467.63755	0.67326
1465.70898	0.67126
1463.78042	0.66958
1461.85186	0.66780
1459.92329	0.66630
1457.99473	0.66518
1456.06616	0.66363
1454.13760	0.66140
1452.20903	0.65922
1450.28047	0.65694
1448.35190	0.65450
1446.42334	0.65186
1444.49478	0.64938
1442.56621	0.64729
1440.63765	0.64548
1438.70908	0.64380
1436.78052	0.64168
1434.85195	0.63911
1432.92339	0.63703
1430.99482	0.63565
1429.06626	0.63469
1427.13770	0.63379
1425.20913	0.63304
1423.28057	0.63254
1421.35200	0.63208
1419.42344	0.63155
1417.49487	0.63049
1415.56631	0.62892
1413.63774	0.62769
1411.70918	0.62688
1409.78062	0.62627
1407.85205	0.62585
1405.92349	0.62567
1403.99492	0.62554
1402.06636	0.62496
1400.13779	0.62381
1398.20923	0.62221
1396.28066	0.62029
1394.35210	0.61782
1392.42354	0.61494
1390.49497	0.61229
1388.56641	0.60981
1386.63784	0.60705
1384.70928	0.60404
1382.78071	0.60117
1380.85215	0.59852
1378.92358	0.59633
1376.99502	0.59476
1375.06646	0.59363
1373.13789	0.59263
1371.20933	0.59166
1369.28076	0.59084
1367.35220	0.59008
1365.42363	0.58907
1363.49507	0.58785
1361.56650	0.58664
1359.63794	0.58540
1357.70937	0.58418
1355.78081	0.58304
1353.85225	0.58196
1351.92368	0.58089
1349.99512	0.57988
1348.06655	0.57903
1346.13799	0.57831
1344.20942	0.57759
1342.28086	0.57678
1340.35229	0.57593
1338.42373	0.57495
1336.49517	0.57387
1334.56660	0.57301
1332.63804	0.57244
1330.70947	0.57198
1328.78091	0.57162
1326.85234	0.57138
1324.92378	0.57116
1322.99521	0.57099
1321.06665	0.57096
1319.13809	0.57103
1317.20952	0.57092
1315.28096	0.57045
1313.35239	0.56966
1311.42383	0.56868
1309.49526	0.56767
1307.56670	0.56675
1305.63813	0.56599
1303.70957	0.56531
1301.78101	0.56449
1299.85244	0.56354
1297.92388	0.56256
1295.99531	0.56150
1294.06675	0.56038
1292.13818	0.55929
1290.20962	0.55836
1288.28105	0.55758
1286.35249	0.55671
1284.42393	0.55574
1282.49536	0.55491
1280.56680	0.55420
1278.63823	0.55340
1276.70967	0.55248
1274.78110	0.55163
1272.85254	0.55100
1270.92397	0.55048
1268.99541	0.54993
1267.06685	0.54934
1265.13828	0.54869
1263.20972	0.54805
1261.28115	0.54754
1259.35259	0.54707
1257.42402	0.54654
1255.49546	0.54619
1253.56689	0.54621
1251.63833	0.54637
1249.70977	0.54634
1247.78120	0.54614
1245.85264	0.54602
1243.92407	0.54584
1241.99551	0.54518
1240.06694	0.54413
1238.13838	0.54304
1236.20981	0.54195
1234.28125	0.54073
1232.35269	0.53941
1230.42412	0.53803
1228.49556	0.53669
1226.56699	0.53548
1224.63843	0.53439
1222.70986	0.53323
1220.78130	0.53195
1218.85273	0.53083
1216.92417	0.53003
1214.99561	0.52936
1213.06704	0.52865
1211.13848	0.52795
1209.20991	0.52734
1207.28135	0.52672
1205.35278	0.52591
1203.42422	0.52505
1201.49565	0.52435
1199.56709	0.52373
1197.63853	0.52304
1195.70996	0.52229
1193.78140	0.52155
1191.85283	0.52088
1189.92427	0.52033
1187.99570	0.51995
1186.06714	0.51979
1184.13857	0.51973
1182.21001	0.51978
1180.28145	0.52008
1178.35288	0.52061
1176.42432	0.52137
1174.49575	0.52227
1172.56719	0.52306
1170.63862	0.52359
1168.71006	0.52400
1166.78149	0.52448
1164.85293	0.52496
1162.92437	0.52532
1160.99580	0.52554
1159.06724	0.52541
1157.13867	0.52485
1155.21011	0.52406
1153.28154	0.52306
1151.35298	0.52167
1149.42441	0.51980
1147.49585	0.51749
1145.56729	0.51488
1143.63872	0.51223
1141.71016	0.50972
1139.78159	0.50747
1137.85303	0.50546
1135.92446	0.50379
1133.99590	0.50265
1132.06733	0.50196
1130.13877	0.50150
1128.21021	0.50095
1126.28164	0.50008
1124.35308	0.49913
1122.42451	0.49854
1120.49595	0.49833
1118.56738	0.49827
1116.63882	0.49839
1114.71025	0.49869
1112.78169	0.49901
1110.85312	0.49955
1108.92456	0.50048
1106.99600	0.50152
1105.06743	0.50244
1103.13887	0.50341
1101.21030	0.50465
1099.28174	0.50630
1097.35317	0.50851
1095.42461	0.51126
1093.49604	0.51467
1091.56748	0.51909
1089.63892	0.52469
1087.71035	0.53135
1085.78179	0.53885
1083.85322	0.54678
1081.92466	0.55417
1079.99609	0.55979
1078.06753	0.56298
1076.13896	0.56342
1074.21040	0.56073
1072.28184	0.55552
1070.35327	0.54918
1068.42471	0.54259
1066.49614	0.53614
1064.56758	0.53005
1062.63901	0.52443
1060.71045	0.51959
1058.78188	0.51549
1056.85332	0.51167
1054.92476	0.50821
1052.99619	0.50541
1051.06763	0.50307
1049.13906	0.50125
1047.21050	0.50026
1045.28193	0.49990
1043.35337	0.49952
1041.42480	0.49902
1039.49624	0.49873
1037.56768	0.49853
1035.63911	0.49835
1033.71055	0.49825
1031.78198	0.49792
1029.85342	0.49716
1027.92485	0.49630
1025.99629	0.49545
1024.06772	0.49457
1022.13916	0.49395
1020.21060	0.49378
1018.28203	0.49391
1016.35347	0.49424
1014.42490	0.49468
1012.49634	0.49504
1010.56777	0.49526
1008.63921	0.49557
1006.71064	0.49638
1004.78208	0.49781
1002.85352	0.49979
1000.92495	0.50239
998.99639	0.50569
997.06782	0.50956
995.13926	0.51371
993.21069	0.51765
991.28213	0.52084
989.35356	0.52287
987.42500	0.52366
985.49644	0.52379
983.56787	0.52399
981.63931	0.52459
979.71074	0.52570
977.78218	0.52735
975.85361	0.52941
973.92505	0.53177
971.99648	0.53455
970.06792	0.53782
968.13936	0.54145
966.21079	0.54550
964.28223	0.54993
962.35366	0.55461
960.42510	0.55959
958.49653	0.56487
956.56797	0.57051
954.63940	0.57659
952.71084	0.58287
950.78228	0.58913
948.85371	0.59549
946.92515	0.60205
944.99658	0.60839
943.06802	0.61422
941.13945	0.61986
939.21089	0.62570
937.28232	0.63152
935.35376	0.63680
933.42520	0.64179
931.49663	0.64727
929.56807	0.65340
927.63950	0.65943
925.71094	0.66548
923.78237	0.67217
921.85381	0.67888
919.92524	0.68508
917.99668	0.69145
916.06812	0.69869
914.13955	0.70660
912.21099	0.71478
910.28242	0.72314
908.35386	0.73133
906.42529	0.73955
904.49673	0.74787
902.56816	0.75588
900.63960	0.76447
898.71104	0.77434
896.78247	0.78459
894.85391	0.79434
892.92534	0.80383
890.99678	0.81354
889.06821	0.82356
887.13965	0.83393
885.21108	0.84538
883.28252	0.85827
881.35396	0.87146
879.42539	0.88367
877.49683	0.89445
875.56826	0.90496
873.63970	0.91621
871.71113	0.92714
869.78257	0.93822
867.85400	0.95074
865.92544	0.96335
863.99687	0.97440
862.06831	0.98450
860.13975	0.99601
858.21118	1.00888
856.28262	1.02017
854.35405	1.03014
852.42549	1.04125
850.49692	1.05451
848.56836	1.06851
846.63979	1.07968
844.71123	1.08815
842.78267	1.09778
840.85410	1.11006
838.92554	1.12401
836.99697	1.13862
835.06841	1.15082
833.13984	1.15811
831.21128	1.16355
829.28271	1.17252
827.35415	1.18640
825.42559	1.20259
823.49702	1.21681
821.56846	1.22318
819.63989	1.22706
817.71133	1.23894
815.78276	1.25484
813.85420	1.26331
811.92563	1.26486
809.99707	1.27246
808.06851	1.29208
806.13994	1.31416
804.21138	1.32626
802.28281	1.32783
800.35425	1.32216
798.42568	1.32510
796.49712	1.33742
794.56855	1.33289
792.63999	1.33628
790.71143	1.37848
788.78286	1.42441
786.85430	1.44933
784.92573	1.47889
782.99717	1.47197
781.06860	1.40705
779.14004	1.34478
777.21147	1.32180
775.28291	1.35771
773.35435	1.44484
771.42578	1.52496
769.49722	1.45860
767.56865	1.30749
765.64009	1.23917
763.71152	1.29002
761.78296	1.42165
759.85439	1.52286
757.92583	1.52957
755.99727	1.49282
754.06870	1.40984
752.14014	1.37736
750.21157	1.37482
748.28301	1.29595
746.35444	1.25679
744.42588	1.29688
742.49731	1.24563
740.56875	1.14623
738.64019	1.08892
736.71162	0.95024
734.78306	0.81776
732.85449	0.72722
730.92593	0.62704
728.99736	0.54254
727.06880	0.44869
725.14023	0.32241
723.21167	0.22394
721.28311	0.09712
719.35454	0.00484
717.42598	0.02645
715.49741	0.08761
713.56885	0.20327
711.64028	0.30559
709.71172	0.39944
707.78315	0.39493
705.85459	0.24046
703.92603	0.18722
701.99746	0.23288
700.06890	0.28194
698.14033	0.35677
696.21177	0.38724
694.28320	0.34304
692.35464	0.36180
690.42607	0.44754
688.49751	0.44188
686.56895	0.37229
684.64038	0.36254
682.71182	0.44733
680.78325	0.52207
678.85469	0.37811
676.92612	0.27065
674.99756	0.27659
673.06899	0.33227
671.14043	0.33994
669.21187	0.31871
667.28330	0.28444
665.35474	0.21631
663.42617	0.20396
661.49761	0.29741
659.56904	0.34524
657.64048	0.23960
655.71191	0.16902
653.78335	0.18870
651.85479	0.23564
649.92622	0.24228
647.99766	0.21979
646.06909	0.27003
644.14053	0.35138
642.21196	0.32501
640.28340	0.30824
638.35483	0.35611
636.42627	0.40980
634.49771	0.47356
632.56914	0.55225
630.64058	0.52627
628.71201	0.46714
626.78345	0.41278
624.85488	0.35450
622.92632	0.34767
620.99775	0.32726
619.06919	0.26930
617.14062	0.26514
615.21206	0.32259
613.28350	0.32471
611.35493	0.28539
609.42637	0.28932
607.49780	0.36360
605.56924	0.42432
603.64067	0.36696
601.71211	0.26554
599.78354	0.18735
597.85498	0.14011
595.92642	0.14310
593.99785	0.19998
592.06929	0.28419
590.14072	0.34678
588.21216	0.37193
586.28359	0.36976
584.35503	0.36621
582.42646	0.39104
580.49790	0.40622
578.56934	0.37299
576.64077	0.34646
574.71221	0.30841
572.78364	0.25591
570.85508	0.28048
568.92651	0.35328
566.99795	0.32397
565.06938	0.25668
563.14082	0.28184
561.21226	0.32371
559.28369	0.28403
557.35513	0.22074
555.42656	0.23172
553.49800	0.27397
551.56943	0.25696
549.64087	0.25055
547.71230	0.28427
545.78374	0.32734
543.85518	0.38151
541.92661	0.39458
539.99805	0.34672
538.06948	0.29660
536.14092	0.24318
534.21235	0.19939
532.28379	0.15382
530.35522	0.10578
528.42666	0.11821
526.49810	0.17258
524.56953	0.20981
522.64097	0.24119
520.71240	0.26111
518.78384	0.25984
516.85527	0.24235
514.92671	0.22724
512.99814	0.25516
511.06958	0.29805
509.14102	0.28904
507.21245	0.26149
505.28389	0.24503
503.35532	0.21408
501.42676	0.20483
499.49819	0.23547
