3997.91411	0.07053
3995.98555	0.07143
3994.05698	0.07245
3992.12842	0.07304
3990.19985	0.07334
3988.27129	0.07341
3986.34272	0.07305
3984.41416	0.07273
3982.48560	0.07276
3980.55703	0.07290
3978.62847	0.07321
3976.69990	0.07375
3974.77134	0.07401
3972.84277	0.07409
3970.91421	0.07452
3968.98564	0.07500
3967.05708	0.07524
3965.12852	0.07536
3963.19995	0.07547
3961.27139	0.07555
3959.34282	0.07551
3957.41426	0.07535
3955.48569	0.07528
3953.55713	0.07538
3951.62856	0.07552
3949.70000	0.07571
3947.77144	0.07588
3945.84287	0.07587
3943.91431	0.07587
3941.98574	0.07594
3940.05718	0.07601
3938.12861	0.07606
3936.20005	0.07574
3934.27148	0.07536
3932.34292	0.07553
3930.41436	0.07571
3928.48579	0.07542
3926.55723	0.07543
3924.62866	0.07589
3922.70010	0.07600
3920.77153	0.07581
3918.84297	0.07575
3916.91440	0.07574
3914.98584	0.07562
3913.05728	0.07518
3911.12871	0.07476
3909.20015	0.07470
3907.27158	0.07470
3905.34302	0.07452
3903.41445	0.07432
3901.48589	0.07441
3899.55732	0.07499
3897.62876	0.07551
3895.70020	0.07546
3893.77163	0.07505
3891.84307	0.07465
3889.91450	0.07454
3887.98594	0.07459
3886.05737	0.07479
3884.12881	0.07503
3882.20024	0.07499
3880.27168	0.07493
3878.34312	0.07510
3876.41455	0.07528
3874.48599	0.07543
3872.55742	0.07592
3870.62886	0.07684
3868.70029	0.07755
3866.77173	0.07729
3864.84316	0.07698
3862.91460	0.07746
3860.98604	0.07785
3859.05747	0.07753
3857.12891	0.07722
3855.20034	0.07753
3853.27178	0.07863
3851.34321	0.07974
3849.41465	0.07997
3847.48608	0.08003
3845.55752	0.08032
3843.62896	0.08095
3841.70039	0.08175
3839.77183	0.08253
3837.84326	0.08354
3835.91470	0.08427
3833.98613	0.08475
3832.05757	0.08557
3830.12900	0.08628
3828.20044	0.08667
3826.27187	0.08724
3824.34331	0.08799
3822.41475	0.08869
3820.48618	0.08982
3818.55762	0.09096
3816.62905	0.09172
3814.70049	0.09279
3812.77192	0.09353
3810.84336	0.09391
3808.91479	0.09462
3806.98623	0.09594
3805.05767	0.09746
3803.12910	0.09839
3801.20054	0.09945
3799.27197	0.10087
3797.34341	0.10178
3795.41484	0.10270
3793.48628	0.10360
3791.55771	0.10442
3789.62915	0.10569
3787.70059	0.10730
3785.77202	0.10883
3783.84346	0.11019
3781.91489	0.11149
3779.98633	0.11315
3778.05776	0.11512
3776.12920	0.11672
3774.20063	0.11828
3772.27207	0.12007
3770.34351	0.12192
3768.41494	0.12384
3766.48638	0.12552
3764.55781	0.12731
3762.62925	0.12922
3760.70068	0.13098
3758.77212	0.13337
3756.84355	0.13640
3754.91499	0.13856
3752.98643	0.14016
3751.05786	0.14323
3749.12930	0.14790
3747.20073	0.15052
3745.27217	0.15212
3743.34360	0.15567
3741.41504	0.15939
3739.48647	0.16168
3737.55791	0.16433
3735.62935	0.16886
3733.70078	0.17514
3731.77222	0.18042
3729.84365	0.18439
3727.91509	0.18839
3725.98652	0.19379
3724.05796	0.20083
3722.12939	0.20811
3720.20083	0.21524
3718.27227	0.22255
3716.34370	0.23021
3714.41514	0.23777
3712.48657	0.24619
3710.55801	0.25851
3708.62944	0.27325
3706.70088	0.28565
3704.77231	0.29693
3702.84375	0.30998
3700.91519	0.32702
3698.98662	0.34547
3697.05806	0.36280
3695.12949	0.38129
3693.20093	0.40085
3691.27236	0.42196
3689.34380	0.45018
3687.41523	0.48595
3685.48667	0.51702
3683.55811	0.54345
3681.62954	0.57151
3679.70098	0.60290
3677.77241	0.63592
3675.84385	0.67521
3673.91528	0.72932
3671.98672	0.77273
3670.05815	0.81061
3668.12959	0.86515
3666.20103	0.91546
3664.27246	0.95656
3662.34390	1.00004
3660.41533	1.04688
3658.48677	1.09286
3656.55820	1.14196
3654.62964	1.19789
3652.70107	1.24420
3650.77251	1.28235
3648.84395	1.33735
3646.91538	1.40981
3644.98682	1.46205
3643.05825	1.50073
3641.12969	1.54006
3639.20112	1.58392
3637.27256	1.62866
3635.34399	1.67191
3633.41543	1.71439
3631.48687	1.75419
3629.55830	1.79546
3627.62974	1.85129
3625.70117	1.90348
3623.77261	1.93749
3621.84404	1.96959
3619.91548	2.00676
3617.98691	2.05213
3616.05835	2.09606
3614.12979	2.13361
3612.20122	2.17426
3610.27266	2.21439
3608.34409	2.25321
3606.41553	2.29595
3604.48696	2.33742
3602.55840	2.37386
3600.62983	2.41190
3598.70127	2.45222
3596.77271	2.49036
3594.84414	2.52965
3592.91558	2.57266
3590.98701	2.61343
3589.05845	2.64912
3587.12988	2.69148
3585.20132	2.74187
3583.27275	2.78503
3581.34419	2.82232
3579.41562	2.86117
3577.48706	2.90376
3575.55850	2.94911
3573.62993	2.99449
3571.70137	3.03539
3569.77280	3.07372
3567.84424	3.11535
3565.91567	3.16820
3563.98711	3.22209
3562.05854	3.26504
3560.12998	3.30549
3558.20142	3.34835
3556.27285	3.39108
3554.34429	3.43238
3552.41572	3.47847
3550.48716	3.52859
3548.55859	3.57490
3546.63003	3.61835
3544.70146	3.66596
3542.77290	3.71625
3540.84434	3.76313
3538.91577	3.80710
3536.98721	3.85077
3535.05864	3.89844
3533.13008	3.94986
3531.20151	4.00059
3529.27295	4.04796
3527.34438	4.09499
3525.41582	4.14152
3523.48726	4.18689
3521.55869	4.23767
3519.63013	4.29214
3517.70156	4.34102
3515.77300	4.38191
3513.84443	4.42497
3511.91587	4.47534
3509.98730	4.52769
3508.05874	4.57736
3506.13018	4.62244
3504.20161	4.66682
3502.27305	4.71734
3500.34448	4.76997
3498.41592	4.81624
3496.48735	4.85942
3494.55879	4.90245
3492.63022	4.94741
3490.70166	4.99663
3488.77310	5.04498
3486.84453	5.08902
3484.91597	5.13305
3482.98740	5.18219
3481.05884	5.23711
3479.13027	5.29068
3477.20171	5.33792
3475.27314	5.38359
3473.34458	5.43200
3471.41602	5.47719
3469.48745	5.51563
3467.55889	5.55776
3465.63032	5.60684
3463.70176	5.65902
3461.77319	5.71198
3459.84463	5.76347
3457.91606	5.81182
3455.98750	5.85652
3454.05894	5.89973
3452.13037	5.94355
3450.20181	5.99248
3448.27324	6.05130
3446.34468	6.11364
3444.41611	6.16991
3442.48755	6.21956
3440.55898	6.25704
3438.63042	6.29410
3436.70186	6.33441
3434.77329	6.37283
3432.84473	6.42199
3430.91616	6.48251
3428.98760	6.55603
3427.05903	6.62876
3425.13047	6.67864
3423.20190	6.71222
3421.27334	6.76194
3419.34478	6.83043
3417.41621	6.89139
3415.48765	6.93878
3413.55908	6.97047
3411.63052	6.98589
3409.70195	6.98063
3407.77339	6.99043
3405.84482	7.04646
3403.91626	7.12204
3401.98770	7.16607
3400.05913	7.17323
3398.13057	7.21032
3396.20200	7.29807
3394.27344	7.37429
3392.34487	7.40749
3390.41631	7.42057
3388.48774	7.44886
3386.55918	7.52981
3384.63062	7.59399
3382.70205	7.60043
3380.77349	7.60997
3378.84492	7.62727
3376.91636	7.65105
3374.98779	7.70647
3373.05923	7.77027
3371.13066	7.76587
3369.20210	7.75874
3367.27354	7.79713
3365.34497	7.80742
3363.41641	7.80260
3361.48784	7.84734
3359.55928	7.89777
3357.63071	7.89057
3355.70215	7.87689
3353.77358	7.85852
3351.84502	7.81375
3349.91646	7.78740
3347.98789	7.83793
3346.05933	7.90823
3344.13076	7.91969
3342.20220	7.93719
3340.27363	7.99042
3338.34507	7.99355
3336.41650	7.93264
3334.48794	7.93898
3332.55937	8.00734
3330.63081	8.06288
3328.70225	8.07603
3326.77368	8.05773
3324.84512	8.05187
3322.91655	8.02748
3320.98799	7.99957
3319.05942	8.01045
3317.13086	8.03516
3315.20229	8.01566
3313.27373	8.00545
3311.34517	8.04218
3309.41660	8.05538
3307.48804	8.02944
3305.55947	8.04902
3303.63091	8.14830
3301.70234	8.19187
3299.77378	8.11016
3297.84521	8.01126
3295.91665	8.02456
3293.98809	8.10054
3292.05952	8.11296
3290.13096	8.07142
3288.20239	8.02852
3286.27383	8.06668
3284.34526	8.18076
3282.41670	8.22023
3280.48813	8.15592
3278.55957	8.10832
3276.63101	8.05443
3274.70244	8.01420
3272.77388	8.05492
3270.84531	8.14625
3268.91675	8.23637
3266.98818	8.22336
3265.05962	8.11612
3263.13105	8.02292
3261.20249	8.00774
3259.27393	8.01280
3257.34536	7.98102
3255.41680	7.98438
3253.48823	8.03848
3251.55967	8.06473
3249.63110	8.05749
3247.70254	8.08402
3245.77397	8.08157
3243.84541	8.03371
3241.91685	8.09145
3239.98828	8.23768
3238.05972	8.25915
3236.13115	8.17002
3234.20259	8.13031
3232.27402	8.09045
3230.34546	8.00384
3228.41689	7.97739
3226.48833	8.03685
3224.55977	8.09844
3222.63120	8.07071
3220.70264	7.91360
3218.77407	7.80405
3216.84551	7.85886
3214.91694	7.94677
3212.98838	7.97068
3211.05981	7.95233
3209.13125	7.88389
3207.20269	7.78006
3205.27412	7.71274
3203.34556	7.72722
3201.41699	7.80019
3199.48843	7.81215
3197.55986	7.67444
3195.63130	7.53771
3193.70273	7.49506
3191.77417	7.46661
3189.84561	7.45473
3187.91704	7.47903
3185.98848	7.46975
3184.05991	7.38798
3182.13135	7.26326
3180.20278	7.17255
3178.27422	7.14632
3176.34565	7.14546
3174.41709	7.12877
3172.48853	7.07922
3170.55996	7.00475
3168.63140	6.93377
3166.70283	6.87714
3164.77427	6.81287
3162.84570	6.73974
3160.91714	6.67164
3158.98857	6.61232
3157.06001	6.56533
3155.13145	6.51091
3153.20288	6.43503
3151.27432	6.36181
3149.34575	6.29312
3147.41719	6.22543
3145.48862	6.16958
3143.56006	6.11457
3141.63149	6.05683
3139.70293	5.98803
3137.77437	5.89587
3135.84580	5.80733
3133.91724	5.74538
3131.98867	5.69109
3130.06011	5.62225
3128.13154	5.54268
3126.20298	5.46952
3124.27441	5.41449
3122.34585	5.36483
3120.41729	5.30224
3118.48872	5.22609
3116.56016	5.14066
3114.63159	5.05298
3112.70303	4.97698
3110.77446	4.91550
3108.84590	4.85742
3106.91733	4.79372
3104.98877	4.72459
3103.06021	4.65863
3101.13164	4.59601
3099.20308	4.53116
3097.27451	4.46722
3095.34595	4.40583
3093.41738	4.34280
3091.48882	4.27645
3089.56025	4.20995
3087.63169	4.14648
3085.70312	4.08544
3083.77456	4.02412
3081.84600	3.96330
3079.91743	3.90337
3077.98887	3.84303
3076.06030	3.78441
3074.13174	3.72802
3072.20317	3.67114
3070.27461	3.61360
3068.34604	3.55791
3066.41748	3.50402
3064.48892	3.44889
3062.56035	3.39289
3060.63179	3.33863
3058.70322	3.28504
3056.77466	3.22997
3054.84609	3.17509
3052.91753	3.12360
3050.98896	3.07516
3049.06040	3.02659
3047.13184	2.97690
3045.20327	2.92738
3043.27471	2.87923
3041.34614	2.83218
3039.41758	2.78517
3037.48901	2.73863
3035.56045	2.69295
3033.63188	2.64770
3031.70332	2.60258
3029.77476	2.55777
3027.84619	2.51424
3025.91763	2.47178
3023.98906	2.42962
3022.06050	2.38792
3020.13193	2.34689
3018.20337	2.30686
3016.27480	2.26761
3014.34624	2.22838
3012.41768	2.18954
3010.48911	2.15153
3008.56055	2.11439
3006.63198	2.07820
3004.70342	2.04278
3002.77485	2.00812
3000.84629	1.97420
2998.91772	1.94087
2996.98916	1.90825
2995.06060	1.87618
2993.13203	1.84433
2991.20347	1.81301
2989.27490	1.78258
2987.34634	1.75286
2985.41777	1.72341
2983.48921	1.69428
2981.56064	1.66613
2979.63208	1.63922
2977.70352	1.61276
2975.77495	1.58613
2973.84639	1.55990
2971.91782	1.53436
2969.98926	1.50919
2968.06069	1.48449
2966.13213	1.46035
2964.20356	1.43629
2962.27500	1.41196
2960.34644	1.38786
2958.41787	1.36454
2956.48931	1.34144
2954.56074	1.31786
2952.63218	1.29404
2950.70361	1.27052
2948.77505	1.24801
2946.84648	1.22670
2944.91792	1.20573
2942.98936	1.18463
2941.06079	1.16384
2939.13223	1.14335
2937.20366	1.12294
2935.27510	1.10262
2933.34653	1.08259
2931.41797	1.06296
2929.48940	1.04358
2927.56084	1.02465
2925.63228	1.00640
2923.70371	0.98874
2921.77515	0.97151
2919.84658	0.95436
2917.91802	0.93732
2915.98945	0.92052
2914.06089	0.90405
2912.13232	0.88805
2910.20376	0.87257
2908.27520	0.85779
2906.34663	0.84380
2904.41807	0.83009
2902.48950	0.81613
2900.56094	0.80217
2898.63237	0.78875
2896.70381	0.77580
2894.77524	0.76327
2892.84668	0.75112
2890.91812	0.73911
2888.98955	0.72739
2887.06099	0.71610
2885.13242	0.70528
2883.20386	0.69506
2881.27529	0.68519
2879.34673	0.67531
2877.41816	0.66526
2875.48960	0.65519
2873.56104	0.64526
2871.63247	0.63497
2869.70391	0.62378
2867.77534	0.61197
2865.84678	0.60031
2863.91821	0.58905
2861.98965	0.57776
2860.06108	0.56657
2858.13252	0.55611
2856.20396	0.54632
2854.27539	0.53672
2852.34683	0.52758
2850.41826	0.51920
2848.48970	0.51093
2846.56113	0.50268
2844.63257	0.49522
2842.70400	0.48848
2840.77544	0.48200
2838.84687	0.47579
2836.91831	0.46963
2834.98975	0.46330
2833.06118	0.45708
2831.13262	0.45107
2829.20405	0.44512
2827.27549	0.43922
2825.34692	0.43333
2823.41836	0.42742
2821.48979	0.42144
2819.56123	0.41539
2817.63267	0.40944
2815.70410	0.40365
2813.77554	0.39780
2811.84697	0.39189
2809.91841	0.38615
2807.98984	0.38067
2806.06128	0.37543
2804.13271	0.37032
2802.20415	0.36519
2800.27559	0.36012
2798.34702	0.35519
2796.41846	0.35029
2794.48989	0.34531
2792.56133	0.34052
2790.63276	0.33616
2788.70420	0.33185
2786.77563	0.32733
2784.84707	0.32278
2782.91851	0.31819
2780.98994	0.31362
2779.06138	0.30942
2777.13281	0.30561
2775.20425	0.30187
2773.27568	0.29816
2771.34712	0.29447
2769.41855	0.29071
2767.48999	0.28700
2765.56143	0.28344
2763.63286	0.27997
2761.70430	0.27654
2759.77573	0.27314
2757.84717	0.26970
2755.91860	0.26633
2753.99004	0.26321
2752.06147	0.26022
2750.13291	0.25721
2748.20435	0.25430
2746.27578	0.25145
2744.34722	0.24861
2742.41865	0.24585
2740.49009	0.24318
2738.56152	0.24058
2736.63296	0.23802
2734.70439	0.23553
2732.77583	0.23312
2730.84727	0.23070
2728.91870	0.22825
2726.99014	0.22590
2725.06157	0.22372
2723.13301	0.22155
2721.20444	0.21928
2719.27588	0.21710
2717.34731	0.21511
2715.41875	0.21319
2713.49019	0.21133
2711.56162	0.20953
2709.63306	0.20767
2707.70449	0.20569
2705.77593	0.20368
2703.84736	0.20179
2701.91880	0.20018
2699.99023	0.19878
2698.06167	0.19734
2696.13311	0.19591
2694.20454	0.19457
2692.27598	0.19318
2690.34741	0.19177
2688.41885	0.19055
2686.49028	0.18938
2684.56172	0.18816
2682.63315	0.18688
2680.70459	0.18542
2678.77603	0.18384
2676.84746	0.18247
2674.91890	0.18144
2672.99033	0.18050
2671.06177	0.17939
2669.13320	0.17821
2667.20464	0.17718
2665.27607	0.17623
2663.34751	0.17524
2661.41895	0.17434
2659.49038	0.17354
2657.56182	0.17278
2655.63325	0.17194
2653.70469	0.17110
2651.77612	0.17042
2649.84756	0.16978
2647.91899	0.16901
2645.99043	0.16823
2644.06187	0.16759
2642.13330	0.16699
2640.20474	0.16629
2638.27617	0.16563
2636.34761	0.16511
2634.41904	0.16466
2632.49048	0.16429
2630.56191	0.16389
2628.63335	0.16343
2626.70479	0.16303
2624.77622	0.16265
2622.84766	0.16224
2620.91909	0.16191
2618.99053	0.16167
2617.06196	0.16144
2615.13340	0.16109
2613.20483	0.16070
2611.27627	0.16047
2609.34771	0.16035
2607.41914	0.16026
2605.49058	0.16022
2603.56201	0.16016
2601.63345	0.16003
2599.70488	0.15985
2597.77632	0.15970
2595.84775	0.15969
2593.91919	0.15982
2591.99062	0.16001
2590.06206	0.16030
2588.13350	0.16056
2586.20493	0.16063
2584.27637	0.16071
2582.34780	0.16092
2580.41924	0.16115
2578.49067	0.16141
2576.56211	0.16158
2574.63354	0.16170
2572.70498	0.16187
2570.77642	0.16206
2568.84785	0.16242
2566.91929	0.16296
2564.99072	0.16348
2563.06216	0.16392
2561.13359	0.16432
2559.20503	0.16464
2557.27646	0.16495
2555.34790	0.16540
2553.41934	0.16602
2551.49077	0.16658
2549.56221	0.16695
2547.63364	0.16726
2545.70508	0.16771
2543.77651	0.16835
2541.84795	0.16902
2539.91938	0.16960
2537.99082	0.17024
2536.06226	0.17093
2534.13369	0.17157
2532.20513	0.17214
2530.27656	0.17268
2528.34800	0.17331
2526.41943	0.17402
2524.49087	0.17478
2522.56230	0.17555
2520.63374	0.17627
2518.70518	0.17702
2516.77661	0.17778
2514.84805	0.17846
2512.91948	0.17911
2510.99092	0.17986
2509.06235	0.18067
2507.13379	0.18149
2505.20522	0.18234
2503.27666	0.18317
2501.34810	0.18390
2499.41953	0.18465
2497.49097	0.18552
2495.56240	0.18644
2493.63384	0.18727
2491.70527	0.18798
2489.77671	0.18874
2487.84814	0.18958
2485.91958	0.19040
2483.99102	0.19122
2482.06245	0.19210
2480.13389	0.19294
2478.20532	0.19378
2476.27676	0.19462
2474.34819	0.19539
2472.41963	0.19622
2470.49106	0.19721
2468.56250	0.19820
2466.63394	0.19905
2464.70537	0.19978
2462.77681	0.20058
2460.84824	0.20153
2458.91968	0.20252
2456.99111	0.20344
2455.06255	0.20436
2453.13398	0.20534
2451.20542	0.20631
2449.27686	0.20728
2447.34829	0.20827
2445.41973	0.20920
2443.49116	0.21003
2441.56260	0.21091
2439.63403	0.21199
2437.70547	0.21311
2435.77690	0.21409
2433.84834	0.21498
2431.91978	0.21594
2429.99121	0.21704
2428.06265	0.21821
2426.13408	0.21936
2424.20552	0.22039
2422.27695	0.22135
2420.34839	0.22235
2418.41982	0.22344
2416.49126	0.22463
2414.56270	0.22586
2412.63413	0.22700
2410.70557	0.22808
2408.77700	0.22924
2406.84844	0.23047
2404.91987	0.23160
2402.99131	0.23264
2401.06274	0.23379
2399.13418	0.23511
2397.20562	0.23638
2395.27705	0.23751
2393.34849	0.23866
2391.41992	0.23994
2389.49136	0.24115
2387.56279	0.24216
2385.63423	0.24302
2383.70566	0.24389
2381.77710	0.24480
2379.84854	0.24571
2377.91997	0.24656
2375.99141	0.24715
2374.06284	0.24729
2372.13428	0.24729
2370.20571	0.24794
2368.27715	0.24914
2366.34858	0.25001
2364.42002	0.25041
2362.49146	0.25010
2360.56289	0.24976
2358.63433	0.25203
2356.70576	0.25619
2354.77720	0.25928
2352.84863	0.26224
2350.92007	0.26512
2348.99150	0.26656
2347.06294	0.26687
2345.13437	0.26680
2343.20581	0.26708
2341.27725	0.26885
2339.34868	0.27158
2337.42012	0.27374
2335.49155	0.27537
2333.56299	0.27675
2331.63442	0.27816
2329.70586	0.28013
2327.77729	0.28247
2325.84873	0.28456
2323.92017	0.28662
2321.99160	0.28898
2320.06304	0.29143
2318.13447	0.29383
2316.20591	0.29592
2314.27734	0.29774
2312.34878	0.29966
2310.42021	0.30185
2308.49165	0.30417
2306.56309	0.30647
2304.63452	0.30853
2302.70596	0.31025
2300.77739	0.31187
2298.84883	0.31370
2296.92026	0.31576
2294.99170	0.31790
2293.06313	0.32003
2291.13457	0.32212
2289.20601	0.32422
2287.27744	0.32632
2285.34888	0.32834
2283.42031	0.33031
2281.49175	0.33230
2279.56318	0.33433
2277.63462	0.33641
2275.70605	0.33846
2273.77749	0.34046
2271.84893	0.34251
2269.92036	0.34455
2267.99180	0.34654
2266.06323	0.34855
2264.13467	0.35067
2262.20610	0.35302
2260.27754	0.35552
2258.34897	0.35783
2256.42041	0.35985
2254.49185	0.36190
2252.56328	0.36410
2250.63472	0.36638
2248.70615	0.36858
2246.77759	0.37071
2244.84902	0.37285
2242.92046	0.37505
2240.99189	0.37729
2239.06333	0.37955
2237.13477	0.38185
2235.20620	0.38412
2233.27764	0.38628
2231.34907	0.38844
2229.42051	0.39073
2227.49194	0.39311
2225.56338	0.39543
2223.63481	0.39766
2221.70625	0.39981
2219.77769	0.40187
2217.84912	0.40385
2215.92056	0.40593
2213.99199	0.40823
2212.06343	0.41051
2210.13486	0.41257
2208.20630	0.41464
2206.27773	0.41686
2204.34917	0.41903
2202.42061	0.42112
2200.49204	0.42324
2198.56348	0.42521
2196.63491	0.42708
2194.70635	0.42912
2192.77778	0.43131
2190.84922	0.43336
2188.92065	0.43514
2186.99209	0.43678
2185.06353	0.43847
2183.13496	0.44028
2181.20640	0.44208
2179.27783	0.44375
2177.34927	0.44537
2175.42070	0.44695
2173.49214	0.44845
2171.56357	0.44992
2169.63501	0.45128
2167.70645	0.45249
2165.77788	0.45372
2163.84932	0.45508
2161.92075	0.45631
2159.99219	0.45728
2158.06362	0.45818
2156.13506	0.45920
2154.20649	0.46026
2152.27793	0.46114
2150.34937	0.46182
2148.42080	0.46245
2146.49224	0.46299
2144.56367	0.46341
2142.63511	0.46387
2140.70654	0.46433
2138.77798	0.46466
2136.84941	0.46485
2134.92085	0.46496
2132.99229	0.46498
2131.06372	0.46492
2129.13516	0.46476
2127.20659	0.46456
2125.27803	0.46437
2123.34946	0.46403
2121.42090	0.46354
2119.49233	0.46303
2117.56377	0.46249
2115.63521	0.46178
2113.70664	0.46088
2111.77808	0.45986
2109.84951	0.45886
2107.92095	0.45797
2105.99238	0.45702
2104.06382	0.45582
2102.13525	0.45443
2100.20669	0.45305
2098.27812	0.45165
2096.34956	0.45015
2094.42100	0.44865
2092.49243	0.44713
2090.56387	0.44548
2088.63530	0.44368
2086.70674	0.44179
2084.77817	0.43993
2082.84961	0.43807
2080.92104	0.43610
2078.99248	0.43407
2077.06392	0.43208
2075.13535	0.43001
2073.20679	0.42777
2071.27822	0.42546
2069.34966	0.42315
2067.42109	0.42084
2065.49253	0.41857
2063.56396	0.41620
2061.63540	0.41368
2059.70684	0.41117
2057.77827	0.40875
2055.84971	0.40625
2053.92114	0.40361
2051.99258	0.40090
2050.06401	0.39824
2048.13545	0.39573
2046.20688	0.39319
2044.27832	0.39043
2042.34976	0.38755
2040.42119	0.38479
2038.49263	0.38216
2036.56406	0.37945
2034.63550	0.37659
2032.70693	0.37373
2030.77837	0.37098
2028.84980	0.36820
2026.92124	0.36541
2024.99268	0.36267
2023.06411	0.35990
2021.13555	0.35704
2019.20698	0.35418
2017.27842	0.35139
2015.34985	0.34859
2013.42129	0.34578
2011.49272	0.34298
2009.56416	0.34025
2007.63560	0.33759
2005.70703	0.33487
2003.77847	0.33206
2001.84990	0.32927
1999.92134	0.32658
1997.99277	0.32391
1996.06421	0.32133
1994.13564	0.31890
1992.20708	0.31647
1990.27852	0.31392
1988.34995	0.31142
1986.42139	0.30896
1984.49282	0.30649
1982.56426	0.30410
1980.63569	0.30180
1978.70713	0.29950
1976.77856	0.29713
1974.85000	0.29482
1972.92144	0.29264
1970.99287	0.29052
1969.06431	0.28842
1967.13574	0.28629
1965.20718	0.28418
1963.27861	0.28221
1961.35005	0.28035
1959.42148	0.27843
1957.49292	0.27647
1955.56436	0.27460
1953.63579	0.27287
1951.70723	0.27119
1949.77866	0.26951
1947.85010	0.26780
1945.92153	0.26616
1943.99297	0.26464
1942.06440	0.26320
1940.13584	0.26180
1938.20728	0.26040
1936.27871	0.25891
1934.35015	0.25746
1932.42158	0.25621
1930.49302	0.25500
1928.56445	0.25379
1926.63589	0.25266
1924.70732	0.25156
1922.77876	0.25052
1920.85020	0.24954
1918.92163	0.24860
1916.99307	0.24766
1915.06450	0.24677
1913.13594	0.24598
1911.20737	0.24530
1909.27881	0.24462
1907.35024	0.24390
1905.42168	0.24320
1903.49312	0.24254
1901.56455	0.24193
1899.63599	0.24140
1897.70742	0.24100
1895.77886	0.24065
1893.85029	0.24029
1891.92173	0.23984
1889.99316	0.23951
1888.06460	0.23924
1886.13604	0.23893
1884.20747	0.23866
1882.27891	0.23846
1880.35034	0.23835
1878.42178	0.23830
1876.49321	0.23822
1874.56465	0.23811
1872.63608	0.23814
1870.70752	0.23830
1868.77896	0.23864
1866.85039	0.23890
1864.92183	0.23888
1862.99326	0.23892
1861.06470	0.23916
1859.13613	0.23959
1857.20757	0.24006
1855.27900	0.24050
1853.35044	0.24087
1851.42187	0.24128
1849.49331	0.24177
1847.56475	0.24230
1845.63618	0.24296
1843.70762	0.24398
1841.77905	0.24499
1839.85049	0.24556
1837.92192	0.24630
1835.99336	0.24722
1834.06479	0.24814
1832.13623	0.24904
1830.20767	0.25038
1828.27910	0.25194
1826.35054	0.25306
1824.42197	0.25427
1822.49341	0.25553
1820.56484	0.25678
1818.63628	0.25821
1816.70771	0.25985
1814.77915	0.26136
1812.85059	0.26293
1810.92202	0.26494
1808.99346	0.26713
1807.06489	0.26908
1805.13633	0.27085
1803.20776	0.27283
1801.27920	0.27523
1799.35063	0.27812
1797.42207	0.28077
1795.49351	0.28307
1793.56494	0.28564
1791.63638	0.28931
1789.70781	0.29312
1787.77925	0.29583
1785.85068	0.29878
1783.92212	0.30240
1781.99355	0.30634
1780.06499	0.31049
1778.13643	0.31476
1776.20786	0.31874
1774.27930	0.32286
1772.35073	0.32855
1770.42217	0.33509
1768.49360	0.34059
1766.56504	0.34576
1764.63647	0.35093
1762.70791	0.35661
1760.77935	0.36411
1758.85078	0.37126
1756.92222	0.37832
1754.99365	0.38601
1753.06509	0.39281
1751.13652	0.40061
1749.20796	0.41081
1747.27939	0.42145
1745.35083	0.43079
1743.42227	0.44029
1741.49370	0.45060
1739.56514	0.46289
1737.63657	0.47524
1735.70801	0.48572
1733.77944	0.50168
1731.85088	0.52155
1729.92231	0.53738
1727.99375	0.55356
1726.06519	0.57068
1724.13662	0.58903
1722.20806	0.60873
1720.27949	0.62649
1718.35093	0.64695
1716.42236	0.67898
1714.49380	0.71085
1712.56523	0.73629
1710.63667	0.76019
1708.70811	0.78532
1706.77954	0.81384
1704.85098	0.84870
1702.92241	0.87995
1700.99385	0.90991
1699.06528	0.95537
1697.13672	0.99811
1695.20815	1.04225
1693.27959	1.08504
1691.35103	1.11898
1689.42246	1.15822
1687.49390	1.19985
1685.56533	1.23937
1683.63677	1.30211
1681.70820	1.36949
1679.77964	1.41178
1677.85107	1.45163
1675.92251	1.49688
1673.99395	1.55302
1672.06538	1.60257
1670.13682	1.65137
1668.20825	1.71782
1666.27969	1.77159
1664.35112	1.81657
1662.42256	1.87449
1660.49399	1.94281
1658.56543	1.99586
1656.63687	2.03716
1654.70830	2.07142
1652.77974	2.12574
1650.85117	2.18425
1648.92261	2.20540
1646.99404	2.23302
1645.06548	2.26401
1643.13691	2.28412
1641.20835	2.29329
1639.27979	2.29950
1637.35122	2.30246
1635.42266	2.30460
1633.49409	2.30221
1631.56553	2.28899
1629.63696	2.27032
1627.70840	2.23963
1625.77983	2.20564
1623.85127	2.16413
1621.92271	2.11398
1619.99414	2.07045
1618.06558	2.02809
1616.13701	1.96354
1614.20845	1.89587
1612.27988	1.84568
1610.35132	1.79426
1608.42275	1.73902
1606.49419	1.68511
1604.56562	1.63563
1602.63706	1.58734
1600.70850	1.53991
1598.77993	1.49644
1596.85137	1.45560
1594.92280	1.41574
1592.99424	1.37738
1591.06567	1.34261
1589.13711	1.31030
1587.20854	1.28063
1585.27998	1.25355
1583.35142	1.22834
1581.42285	1.20549
1579.49429	1.18618
1577.56572	1.16874
1575.63716	1.14757
1573.70859	1.12986
1571.78003	1.11873
1569.85146	1.10704
1567.92290	1.09441
1565.99434	1.08546
1564.06577	1.07880
1562.13721	1.07359
1560.20864	1.07018
1558.28008	1.06837
1556.35151	1.06919
1554.42295	1.06981
1552.49438	1.07005
1550.56582	1.06865
1548.63726	1.06461
1546.70869	1.05828
1544.78013	1.04914
1542.85156	1.03677
1540.92300	1.01897
1538.99443	0.99192
1537.06587	0.97325
1535.13730	0.96030
1533.20874	0.94163
1531.28018	0.92195
1529.35161	0.90862
1527.42305	0.89597
1525.49448	0.88223
1523.56592	0.87014
1521.63735	0.85856
1519.70879	0.84767
1517.78022	0.83904
1515.85166	0.82855
1513.92310	0.81741
1511.99453	0.80772
1510.06597	0.79880
1508.13740	0.78976
1506.20884	0.77548
1504.28027	0.76422
1502.35171	0.75821
1500.42314	0.75250
1498.49458	0.74597
1496.56602	0.73846
1494.63745	0.73162
1492.70889	0.72643
1490.78032	0.72156
1488.85176	0.71590
1486.92319	0.71089
1484.99463	0.70715
1483.06606	0.70419
1481.13750	0.70172
1479.20894	0.69977
1477.28037	0.69842
1475.35181	0.69744
1473.42324	0.69685
1471.49468	0.69616
1469.56611	0.69462
1467.63755	0.69256
1465.70898	0.69072
1463.78042	0.68965
1461.85186	0.68915
1459.92329	0.68873
1457.99473	0.68846
1456.06616	0.68810
1454.13760	0.68645
1452.20903	0.68403
1450.28047	0.68136
1448.35190	0.67886
1446.42334	0.67662
1444.49478	0.67448
1442.56621	0.67224
1440.63765	0.66986
1438.70908	0.66734
1436.78052	0.66435
1434.85195	0.66121
1432.92339	0.65881
1430.99482	0.65710
1429.06626	0.65615
1427.13770	0.65588
1425.20913	0.65608
1423.28057	0.65667
1421.35200	0.65706
1419.42344	0.65700
1417.49487	0.65655
1415.56631	0.65566
1413.63774	0.65494
1411.70918	0.65472
1409.78062	0.65503
1407.85205	0.65570
1405.92349	0.65663
1403.99492	0.65748
1402.06636	0.65754
1400.13779	0.65670
1398.20923	0.65489
1396.28066	0.65226
1394.35210	0.64891
1392.42354	0.64503
1390.49497	0.64132
1388.56641	0.63772
1386.63784	0.63358
1384.70928	0.62905
1382.78071	0.62479
1380.85215	0.62098
1378.92358	0.61772
1376.99502	0.61512
1375.06646	0.61332
1373.13789	0.61225
1371.20933	0.61160
1369.28076	0.61102
1367.35220	0.61019
1365.42363	0.60895
1363.49507	0.60750
1361.56650	0.60603
1359.63794	0.60452
1357.70937	0.60303
1355.78081	0.60177
1353.85225	0.60066
1351.92368	0.59959
1349.99512	0.59867
1348.06655	0.59784
1346.13799	0.59690
1344.20942	0.59581
1342.28086	0.59471
1340.35229	0.59379
1338.42373	0.59302
1336.49517	0.59228
1334.56660	0.59171
1332.63804	0.59138
1330.70947	0.59133
1328.78091	0.59158
1326.85234	0.59202
1324.92378	0.59252
1322.99521	0.59315
1321.06665	0.59383
1319.13809	0.59430
1317.20952	0.59446
1315.28096	0.59434
1313.35239	0.59391
1311.42383	0.59316
1309.49526	0.59227
1307.56670	0.59141
1305.63813	0.59062
1303.70957	0.58984
1301.78101	0.58890
1299.85244	0.58771
1297.92388	0.58646
1295.99531	0.58534
1294.06675	0.58426
1292.13818	0.58310
1290.20962	0.58178
1288.28105	0.58035
1286.35249	0.57905
1284.42393	0.57795
1282.49536	0.57680
1280.56680	0.57552
1278.63823	0.57416
1276.70967	0.57273
1274.78110	0.57155
1272.85254	0.57086
1270.92397	0.57032
1268.99541	0.56961
1267.06685	0.56886
1265.13828	0.56808
1263.20972	0.56733
1261.28115	0.56672
1259.35259	0.56616
1257.42402	0.56558
1255.49546	0.56516
1253.56689	0.56502
1251.63833	0.56512
1249.70977	0.56537
1247.78120	0.56551
1245.85264	0.56532
1243.92407	0.56472
1241.99551	0.56382
1240.06694	0.56272
1238.13838	0.56125
1236.20981	0.55929
1234.28125	0.55717
1232.35269	0.55517
1230.42412	0.55323
1228.49556	0.55128
1226.56699	0.54934
1224.63843	0.54753
1222.70986	0.54588
1220.78130	0.54425
1218.85273	0.54269
1216.92417	0.54131
1214.99561	0.54024
1213.06704	0.53947
1211.13848	0.53875
1209.20991	0.53805
1207.28135	0.53746
1205.35278	0.53677
1203.42422	0.53589
1201.49565	0.53502
1199.56709	0.53405
1197.63853	0.53298
1195.70996	0.53201
1193.78140	0.53119
1191.85283	0.53041
1189.92427	0.52972
1187.99570	0.52924
1186.06714	0.52890
1184.13857	0.52882
1182.21001	0.52916
1180.28145	0.52984
1178.35288	0.53078
1176.42432	0.53205
1174.49575	0.53335
1172.56719	0.53428
1170.63862	0.53479
1168.71006	0.53512
1166.78149	0.53544
1164.85293	0.53578
1162.92437	0.53614
1160.99580	0.53636
1159.06724	0.53620
1157.13867	0.53578
1155.21011	0.53525
1153.28154	0.53437
1151.35298	0.53290
1149.42441	0.53069
1147.49585	0.52787
1145.56729	0.52497
1143.63872	0.52237
1141.71016	0.52000
1139.78159	0.51798
1137.85303	0.51658
1135.92446	0.51573
1133.99590	0.51517
1132.06733	0.51486
1130.13877	0.51481
1128.21021	0.51480
1126.28164	0.51449
1124.35308	0.51392
1122.42451	0.51361
1120.49595	0.51372
1118.56738	0.51402
1116.63882	0.51440
1114.71025	0.51504
1112.78169	0.51588
1110.85312	0.51669
1108.92456	0.51746
1106.99600	0.51837
1105.06743	0.51952
1103.13887	0.52067
1101.21030	0.52170
1099.28174	0.52295
1097.35317	0.52471
1095.42461	0.52716
1093.49604	0.53060
1091.56748	0.53532
1089.63892	0.54143
1087.71035	0.54897
1085.78179	0.55755
1083.85322	0.56610
1081.92466	0.57354
1079.99609	0.57899
1078.06753	0.58172
1076.13896	0.58129
1074.21040	0.57780
1072.28184	0.57220
1070.35327	0.56536
1068.42471	0.55807
1066.49614	0.55134
1064.56758	0.54534
1062.63901	0.53981
1060.71045	0.53496
1058.78188	0.53088
1056.85332	0.52737
1054.92476	0.52429
1052.99619	0.52144
1051.06763	0.51892
1049.13906	0.51731
1047.21050	0.51675
1045.28193	0.51668
1043.35337	0.51664
1041.42480	0.51668
1039.49624	0.51694
1037.56768	0.51710
1035.63911	0.51693
1033.71055	0.51649
1031.78198	0.51567
1029.85342	0.51434
1027.92485	0.51249
1025.99629	0.51045
1024.06772	0.50881
1022.13916	0.50782
1020.21060	0.50732
1018.28203	0.50711
1016.35347	0.50683
1014.42490	0.50619
1012.49634	0.50553
1010.56777	0.50525
1008.63921	0.50524
1006.71064	0.50543
1004.78208	0.50617
1002.85352	0.50776
1000.92495	0.51017
998.99639	0.51344
997.06782	0.51757
995.13926	0.52205
993.21069	0.52619
991.28213	0.52943
989.35356	0.53136
987.42500	0.53200
985.49644	0.53197
983.56787	0.53173
981.63931	0.53157
979.71074	0.53205
977.78218	0.53341
975.85361	0.53531
973.92505	0.53749
971.99648	0.54012
970.06792	0.54332
968.13936	0.54690
966.21079	0.55081
964.28223	0.55513
962.35366	0.55976
960.42510	0.56459
958.49653	0.56975
956.56797	0.57524
954.63940	0.58079
952.71084	0.58652
950.78228	0.59273
948.85371	0.59921
946.92515	0.60575
944.99658	0.61225
943.06802	0.61820
941.13945	0.62338
939.21089	0.62855
937.28232	0.63430
935.35376	0.64036
933.42520	0.64632
931.49663	0.65196
929.56807	0.65753
927.63950	0.66376
925.71094	0.67055
923.78237	0.67704
921.85381	0.68326
919.92524	0.68984
917.99668	0.69684
916.06812	0.70419
914.13955	0.71175
912.21099	0.71954
910.28242	0.72780
908.35386	0.73590
906.42529	0.74355
904.49673	0.75183
902.56816	0.76088
900.63960	0.76989
898.71104	0.77884
896.78247	0.78797
894.85391	0.79731
892.92534	0.80740
890.99678	0.81860
889.06821	0.82952
887.13965	0.83943
885.21108	0.85011
883.28252	0.86201
881.35396	0.87372
879.42539	0.88557
877.49683	0.89768
875.56826	0.90902
873.63970	0.92026
871.71113	0.93156
869.78257	0.94243
867.85400	0.95338
865.92544	0.96438
863.99687	0.97607
862.06831	0.98847
860.13975	1.00033
858.21118	1.01141
856.28262	1.02238
854.35405	1.03478
852.42549	1.04806
850.49692	1.06006
848.56836	1.07150
846.63979	1.08439
844.71123	1.09815
842.78267	1.10970
840.85410	1.11889
838.92554	1.12738
836.99697	1.13647
835.06841	1.14906
833.13984	1.16277
831.21128	1.17122
829.28271	1.17868
827.35415	1.19101
825.42559	1.20309
823.49702	1.21148
821.56846	1.21897
819.63989	1.22917
817.71133	1.24210
815.78276	1.25192
813.85420	1.25469
811.92563	1.25922
809.99707	1.27625
808.06851	1.30048
806.13994	1.32424
804.21138	1.34581
802.28281	1.35831
800.35425	1.36414
798.42568	1.37782
796.49712	1.37254
794.56855	1.34040
792.63999	1.34045
790.71143	1.36042
788.78286	1.35426
786.85430	1.36269
784.92573	1.39717
782.99717	1.40436
781.06860	1.40391
779.14004	1.40480
777.21147	1.39341
775.28291	1.41043
773.35435	1.41110
771.42578	1.36841
769.49722	1.34667
767.56865	1.35255
765.64009	1.31755
763.71152	1.21072
761.78296	1.13852
759.85439	1.18950
757.92583	1.36833
755.99727	1.52295
754.06870	1.42878
752.14014	1.23520
750.21157	1.14093
748.28301	1.13440
746.35444	1.12759
744.42588	1.10234
742.49731	1.11884
740.56875	1.17454
738.64019	1.25676
736.71162	1.16196
734.78306	0.96104
732.85449	0.85066
730.92593	0.77649
728.99736	0.62705
727.06880	0.48236
725.14023	0.40710
723.21167	0.32142
721.28311	0.12568
719.35454	0.00178
717.42598	0.13658
715.49741	0.45405
713.56885	0.58594
711.64028	0.42685
709.71172	0.32168
707.78315	0.29717
705.85459	0.41632
703.92603	0.51985
701.99746	0.42153
700.06890	0.42276
698.14033	0.52425
696.21177	0.50964
694.28320	0.45934
692.35464	0.46466
690.42607	0.45862
688.49751	0.43978
686.56895	0.42567
684.64038	0.33540
682.71182	0.23748
680.78325	0.19538
678.85469	0.19527
676.92612	0.24938
674.99756	0.35434
673.06899	0.43841
671.14043	0.39918
669.21187	0.30726
667.28330	0.24719
665.35474	0.23086
663.42617	0.23462
661.49761	0.23861
659.56904	0.24831
657.64048	0.26596
655.71191	0.26825
653.78335	0.21907
651.85479	0.19201
649.92622	0.20323
647.99766	0.19810
646.06909	0.24026
644.14053	0.33745
642.21196	0.32958
640.28340	0.26156
638.35483	0.24996
636.42627	0.31675
634.49771	0.35332
632.56914	0.34340
630.64058	0.40087
628.71201	0.44207
626.78345	0.31937
624.85488	0.22962
622.92632	0.22259
620.99775	0.20420
619.06919	0.16640
617.14062	0.16607
615.21206	0.23126
613.28350	0.31355
611.35493	0.31892
609.42637	0.25982
607.49780	0.22892
605.56924	0.28151
603.64067	0.38432
601.71211	0.38827
599.78354	0.29273
597.85498	0.22121
595.92642	0.20247
593.99785	0.25764
592.06929	0.33724
590.14072	0.33208
588.21216	0.31849
586.28359	0.33373
584.35503	0.31699
582.42646	0.26718
580.49790	0.22615
578.56934	0.20968
576.64077	0.20908
574.71221	0.22146
572.78364	0.26328
570.85508	0.34112
568.92651	0.40581
566.99795	0.33009
565.06938	0.20646
563.14082	0.18010
561.21226	0.21370
559.28369	0.26954
557.35513	0.32673
555.42656	0.36566
553.49800	0.38037
551.56943	0.31624
549.64087	0.20795
547.71230	0.16782
545.78374	0.19499
543.85518	0.24070
541.92661	0.27210
539.99805	0.26410
538.06948	0.26757
536.14092	0.28490
534.21235	0.24998
532.28379	0.20791
530.35522	0.22181
528.42666	0.30572
526.49810	0.40567
524.56953	0.43287
522.64097	0.36462
520.71240	0.28272
518.78384	0.25341
516.85527	0.29619
514.92671	0.38920
512.99814	0.36601
511.06958	0.25672
509.14102	0.21056
507.21245	0.22184
505.28389	0.22976
503.35532	0.23017
501.42676	0.26269
499.49819	0.28303
