3997.91411	0.06804
3995.98555	0.06817
3994.05698	0.06894
3992.12842	0.06962
3990.19985	0.07006
3988.27129	0.07060
3986.34272	0.07103
3984.41416	0.07111
3982.48560	0.07103
3980.55703	0.07113
3978.62847	0.07145
3976.69990	0.07204
3974.77134	0.07259
3972.84277	0.07261
3970.91421	0.07245
3968.98564	0.07272
3967.05708	0.07316
3965.12852	0.07295
3963.19995	0.07227
3961.27139	0.07218
3959.34282	0.07299
3957.41426	0.07364
3955.48569	0.07344
3953.55713	0.07296
3951.62856	0.07290
3949.70000	0.07337
3947.77144	0.07385
3945.84287	0.07387
3943.91431	0.07380
3941.98574	0.07378
3940.05718	0.07340
3938.12861	0.07307
3936.20005	0.07329
3934.27148	0.07375
3932.34292	0.07408
3930.41436	0.07402
3928.48579	0.07370
3926.55723	0.07361
3924.62866	0.07373
3922.70010	0.07356
3920.77153	0.07322
3918.84297	0.07324
3916.91440	0.07359
3914.98584	0.07359
3913.05728	0.07291
3911.12871	0.07227
3909.20015	0.07229
3907.27158	0.07300
3905.34302	0.07418
3903.41445	0.07548
3901.48589	0.07622
3899.55732	0.07593
3897.62876	0.07470
3895.70020	0.07351
3893.77163	0.07350
3891.84307	0.07441
3889.91450	0.07444
3887.98594	0.07327
3886.05737	0.07309
3884.12881	0.07430
3882.20024	0.07525
3880.27168	0.07549
3878.34312	0.07499
3876.41455	0.07413
3874.48599	0.07412
3872.55742	0.07508
3870.62886	0.07617
3868.70029	0.07674
3866.77173	0.07664
3864.84316	0.07710
3862.91460	0.07842
3860.98604	0.07871
3859.05747	0.07799
3857.12891	0.07778
3855.20034	0.07873
3853.27178	0.08148
3851.34321	0.08361
3849.41465	0.08193
3847.48608	0.07997
3845.55752	0.07936
3843.62896	0.07995
3841.70039	0.08130
3839.77183	0.08313
3837.84326	0.08497
3835.91470	0.08533
3833.98613	0.08496
3832.05757	0.08526
3830.12900	0.08564
3828.20044	0.08572
3826.27187	0.08617
3824.34331	0.08712
3822.41475	0.08876
3820.48618	0.09124
3818.55762	0.09202
3816.62905	0.09139
3814.70049	0.09137
3812.77192	0.09126
3810.84336	0.09121
3808.91479	0.09220
3806.98623	0.09431
3805.05767	0.09634
3803.12910	0.09815
3801.20054	0.10098
3799.27197	0.10288
3797.34341	0.10245
3795.41484	0.10195
3793.48628	0.10193
3791.55771	0.10246
3789.62915	0.10362
3787.70059	0.10503
3785.77202	0.10703
3783.84346	0.10918
3781.91489	0.11025
3779.98633	0.11146
3778.05776	0.11378
3776.12920	0.11532
3774.20063	0.11587
3772.27207	0.11701
3770.34351	0.11963
3768.41494	0.12295
3766.48638	0.12522
3764.55781	0.12680
3762.62925	0.12808
3760.70068	0.12952
3758.77212	0.13222
3756.84355	0.13556
3754.91499	0.13812
3752.98643	0.14065
3751.05786	0.14470
3749.12930	0.14911
3747.20073	0.15120
3745.27217	0.15330
3743.34360	0.15797
3741.41504	0.16315
3739.48647	0.16719
3737.55791	0.17177
3735.62935	0.17826
3733.70078	0.18538
3731.77222	0.19058
3729.84365	0.19506
3727.91509	0.19967
3725.98652	0.20521
3724.05796	0.21177
3722.12939	0.21795
3720.20083	0.22350
3718.27227	0.22836
3716.34370	0.23293
3714.41514	0.23865
3712.48657	0.24839
3710.55801	0.26414
3708.62944	0.27989
3706.70088	0.29093
3704.77231	0.30108
3702.84375	0.31361
3700.91519	0.33053
3698.98662	0.34946
3697.05806	0.36730
3695.12949	0.38567
3693.20093	0.40476
3691.27236	0.42514
3689.34380	0.45173
3687.41523	0.48544
3685.48667	0.51530
3683.55811	0.54048
3681.62954	0.56754
3679.70098	0.59900
3677.77241	0.63278
3675.84385	0.67218
3673.91528	0.72446
3671.98672	0.76749
3670.05815	0.80557
3668.12959	0.85732
3666.20103	0.90451
3664.27246	0.94439
3662.34390	0.98810
3660.41533	1.03566
3658.48677	1.08216
3656.55820	1.13134
3654.62964	1.18637
3652.70107	1.23274
3650.77251	1.27289
3648.84395	1.32913
3646.91538	1.39901
3644.98682	1.44885
3643.05825	1.48688
3641.12969	1.52717
3639.20112	1.57213
3637.27256	1.61748
3635.34399	1.66226
3633.41543	1.70730
3631.48687	1.74877
3629.55830	1.79032
3627.62974	1.84453
3625.70117	1.89466
3623.77261	1.92781
3621.84404	1.95862
3619.91548	1.99481
3617.98691	2.04118
3616.05835	2.08536
3614.12979	2.12051
3612.20122	2.15826
3610.27266	2.19823
3608.34409	2.23966
3606.41553	2.28315
3604.48696	2.32312
3602.55840	2.35954
3600.62983	2.39840
3598.70127	2.43921
3596.77271	2.47849
3594.84414	2.51899
3592.91558	2.56127
3590.98701	2.59980
3589.05845	2.63447
3587.12988	2.67627
3585.20132	2.72232
3583.27275	2.76108
3581.34419	2.79860
3579.41562	2.84053
3577.48706	2.88530
3575.55850	2.92927
3573.62993	2.97136
3571.70137	3.01158
3569.77280	3.05173
3567.84424	3.09484
3565.91567	3.14712
3563.98711	3.19952
3562.05854	3.24159
3560.12998	3.28037
3558.20142	3.32127
3556.27285	3.36526
3554.34429	3.41097
3552.41572	3.45877
3550.48716	3.50495
3548.55859	3.54732
3546.63003	3.59216
3544.70146	3.64496
3542.77290	3.69894
3540.84434	3.74498
3538.91577	3.78672
3536.98721	3.83111
3535.05864	3.87871
3533.13008	3.92575
3531.20151	3.97330
3529.27295	4.02191
3527.34438	4.07099
3525.41582	4.11712
3523.48726	4.16029
3521.55869	4.20566
3519.63013	4.25173
3517.70156	4.29992
3515.77300	4.34823
3513.84443	4.39251
3511.91587	4.43933
3509.98730	4.49288
3508.05874	4.54676
3506.13018	4.59690
3504.20161	4.64655
3502.27305	4.69717
3500.34448	4.74152
3498.41592	4.77932
3496.48735	4.82579
3494.55879	4.87968
3492.63022	4.92856
3490.70166	4.97883
3488.77310	5.03403
3486.84453	5.08396
3484.91597	5.12547
3482.98740	5.16498
3481.05884	5.20857
3479.13027	5.25466
3477.20171	5.30010
3475.27314	5.34977
3473.34458	5.40820
3471.41602	5.46330
3469.48745	5.50302
3467.55889	5.54195
3465.63032	5.58984
3463.70176	5.63532
3461.77319	5.67588
3459.84463	5.72436
3457.91606	5.78219
3455.98750	5.83813
3454.05894	5.88984
3452.13037	5.93943
3450.20181	5.98004
3448.27324	6.02069
3446.34468	6.08239
3444.41611	6.14375
3442.48755	6.18521
3440.55898	6.22969
3438.63042	6.28665
3436.70186	6.33570
3434.77329	6.37783
3432.84473	6.41990
3430.91616	6.44533
3428.98760	6.47400
3427.05903	6.53082
3425.13047	6.60474
3423.20190	6.67540
3421.27334	6.73777
3419.34478	6.79560
3417.41621	6.84813
3415.48765	6.88697
3413.55908	6.90943
3411.63052	6.93083
3409.70195	6.95665
3407.77339	6.99740
3405.84482	7.05484
3403.91626	7.11176
3401.98770	7.15277
3400.05913	7.19780
3398.13057	7.25511
3396.20200	7.29070
3394.27344	7.30385
3392.34487	7.33183
3390.41631	7.39388
3388.48774	7.43826
3386.55918	7.46914
3384.63062	7.51638
3382.70205	7.54136
3380.77349	7.55959
3378.84492	7.61841
3376.91636	7.66309
3374.98779	7.63741
3373.05923	7.64753
3371.13066	7.74714
3369.20210	7.84696
3367.27354	7.86329
3365.34497	7.87212
3363.41641	7.93143
3361.48784	7.94803
3359.55928	7.90725
3357.63071	7.88245
3355.70215	7.88174
3353.77358	7.86120
3351.84502	7.87146
3349.91646	7.93367
3347.98789	7.99193
3346.05933	8.02360
3344.13076	8.00652
3342.20220	7.97874
3340.27363	8.00789
3338.34507	8.05080
3336.41650	8.01733
3334.48794	7.97779
3332.55937	7.98990
3330.63081	8.02161
3328.70225	8.06084
3326.77368	8.04863
3324.84512	7.96730
3322.91655	7.94066
3320.98799	7.97387
3319.05942	7.95558
3317.13086	7.93233
3315.20229	7.93878
3313.27373	7.94964
3311.34517	7.96189
3309.41660	7.98684
3307.48804	8.02901
3305.55947	8.05375
3303.63091	8.07552
3301.70234	8.09354
3299.77378	8.06980
3297.84521	8.04172
3295.91665	8.09760
3293.98809	8.16889
3292.05952	8.17073
3290.13096	8.15031
3288.20239	8.11120
3286.27383	8.08468
3284.34526	8.10796
3282.41670	8.15624
3280.48813	8.17505
3278.55957	8.17031
3276.63101	8.14067
3274.70244	8.07144
3272.77388	8.02568
3270.84531	8.02400
3268.91675	8.04769
3266.98818	8.11010
3265.05962	8.17571
3263.13105	8.20327
3261.20249	8.25495
3259.27393	8.26080
3257.34536	8.13558
3255.41680	8.00940
3253.48823	7.99418
3251.55967	8.09415
3249.63110	8.19552
3247.70254	8.19317
3245.77397	8.14502
3243.84541	8.10789
3241.91685	8.08258
3239.98828	8.08622
3238.05972	8.13258
3236.13115	8.26774
3234.20259	8.38083
3232.27402	8.30164
3230.34546	8.19412
3228.41689	8.15673
3226.48833	8.16799
3224.55977	8.21954
3222.63120	8.21268
3220.70264	8.12253
3218.77407	8.09510
3216.84551	8.13015
3214.91694	8.11355
3212.98838	8.05722
3211.05981	7.95672
3209.13125	7.86202
3207.20269	7.79555
3205.27412	7.67796
3203.34556	7.61026
3201.41699	7.64538
3199.48843	7.64805
3197.55986	7.61358
3195.63130	7.58235
3193.70273	7.52155
3191.77417	7.49018
3189.84561	7.49250
3187.91704	7.45459
3185.98848	7.39457
3184.05991	7.33259
3182.13135	7.25798
3180.20278	7.17356
3178.27422	7.08768
3176.34565	7.03704
3174.41709	6.99751
3172.48853	6.92626
3170.55996	6.87175
3168.63140	6.84226
3166.70283	6.78459
3164.77427	6.70979
3162.84570	6.64959
3160.91714	6.58701
3158.98857	6.51680
3157.06001	6.45202
3155.13145	6.39433
3153.20288	6.34376
3151.27432	6.28216
3149.34575	6.19644
3147.41719	6.12170
3145.48862	6.08109
3143.56006	6.02881
3141.63149	5.94049
3139.70293	5.85662
3137.77437	5.78910
3135.84580	5.72371
3133.91724	5.65952
3131.98867	5.59571
3130.06011	5.53026
3128.13154	5.45917
3126.20298	5.38338
3124.27441	5.31050
3122.34585	5.24369
3120.41729	5.17835
3118.48872	5.10781
3116.56016	5.03461
3114.63159	4.96448
3112.70303	4.90010
3110.77446	4.83894
3108.84590	4.77496
3106.91733	4.70818
3104.98877	4.64284
3103.06021	4.57727
3101.13164	4.50627
3099.20308	4.43536
3097.27451	4.37136
3095.34595	4.30999
3093.41738	4.24786
3091.48882	4.18808
3089.56025	4.12985
3087.63169	4.06845
3085.70312	4.00559
3083.77456	3.94480
3081.84600	3.88458
3079.91743	3.82436
3077.98887	3.76679
3076.06030	3.71152
3074.13174	3.65607
3072.20317	3.59925
3070.27461	3.54130
3068.34604	3.48466
3066.41748	3.43038
3064.48892	3.37658
3062.56035	3.32201
3060.63179	3.26778
3058.70322	3.21518
3056.77466	3.16407
3054.84609	3.11360
3052.91753	3.06343
3050.98896	3.01356
3049.06040	2.96342
3047.13184	2.91420
3045.20327	2.86700
3043.27471	2.81994
3041.34614	2.77177
3039.41758	2.72364
3037.48901	2.67700
3035.56045	2.63227
3033.63188	2.58880
3031.70332	2.54555
3029.77476	2.50251
3027.84619	2.46047
3025.91763	2.41893
3023.98906	2.37709
3022.06050	2.33515
3020.13193	2.29316
3018.20337	2.25228
3016.27480	2.21371
3014.34624	2.17613
3012.41768	2.13821
3010.48911	2.10020
3008.56055	2.06296
3006.63198	2.02713
3004.70342	1.99229
3002.77485	1.95828
3000.84629	1.92563
2998.91772	1.89389
2996.98916	1.86195
2995.06060	1.82999
2993.13203	1.79918
2991.20347	1.76969
2989.27490	1.74090
2987.34634	1.71277
2985.41777	1.68531
2983.48921	1.65829
2981.56064	1.63197
2979.63208	1.60631
2977.70352	1.58116
2975.77495	1.55665
2973.84639	1.53229
2971.91782	1.50821
2969.98926	1.48528
2968.06069	1.46314
2966.13213	1.44078
2964.20356	1.41841
2962.27500	1.39652
2960.34644	1.37440
2958.41787	1.35156
2956.48931	1.32817
2954.56074	1.30436
2952.63218	1.28056
2950.70361	1.25750
2948.77505	1.23535
2946.84648	1.21400
2944.91792	1.19335
2942.98936	1.17323
2941.06079	1.15354
2939.13223	1.13422
2937.20366	1.11512
2935.27510	1.09606
2933.34653	1.07714
2931.41797	1.05836
2929.48940	1.03966
2927.56084	1.02140
2925.63228	1.00327
2923.70371	0.98510
2921.77515	0.96739
2919.84658	0.95017
2917.91802	0.93298
2915.98945	0.91551
2914.06089	0.89822
2912.13232	0.88190
2910.20376	0.86620
2908.27520	0.85053
2906.34663	0.83520
2904.41807	0.82060
2902.48950	0.80638
2900.56094	0.79219
2898.63237	0.77845
2896.70381	0.76543
2894.77524	0.75265
2892.84668	0.73990
2890.91812	0.72785
2888.98955	0.71670
2887.06099	0.70583
2885.13242	0.69502
2883.20386	0.68492
2881.27529	0.67576
2879.34673	0.66667
2877.41816	0.65722
2875.48960	0.64786
2873.56104	0.63846
2871.63247	0.62825
2869.70391	0.61697
2867.77534	0.60520
2865.84678	0.59341
2863.91821	0.58157
2861.98965	0.56997
2860.06108	0.55923
2858.13252	0.54919
2856.20396	0.53926
2854.27539	0.52943
2852.34683	0.51997
2850.41826	0.51109
2848.48970	0.50264
2846.56113	0.49443
2844.63257	0.48676
2842.70400	0.47958
2840.77544	0.47258
2838.84687	0.46601
2836.91831	0.45995
2834.98975	0.45367
2833.06118	0.44705
2831.13262	0.44074
2829.20405	0.43481
2827.27549	0.42876
2825.34692	0.42264
2823.41836	0.41669
2821.48979	0.41085
2819.56123	0.40507
2817.63267	0.39938
2815.70410	0.39382
2813.77554	0.38817
2811.84697	0.38236
2809.91841	0.37684
2807.98984	0.37171
2806.06128	0.36652
2804.13271	0.36115
2802.20415	0.35587
2800.27559	0.35085
2798.34702	0.34598
2796.41846	0.34118
2794.48989	0.33649
2792.56133	0.33188
2790.63276	0.32727
2788.70420	0.32280
2786.77563	0.31843
2784.84707	0.31417
2782.91851	0.31010
2780.98994	0.30617
2779.06138	0.30213
2777.13281	0.29795
2775.20425	0.29393
2773.27568	0.29017
2771.34712	0.28652
2769.41855	0.28286
2767.48999	0.27917
2765.56143	0.27556
2763.63286	0.27210
2761.70430	0.26866
2759.77573	0.26524
2757.84717	0.26196
2755.91860	0.25892
2753.99004	0.25594
2752.06147	0.25292
2750.13291	0.24986
2748.20435	0.24688
2746.27578	0.24402
2744.34722	0.24128
2742.41865	0.23862
2740.49009	0.23598
2738.56152	0.23332
2736.63296	0.23064
2734.70439	0.22813
2732.77583	0.22581
2730.84727	0.22343
2728.91870	0.22092
2726.99014	0.21845
2725.06157	0.21615
2723.13301	0.21394
2721.20444	0.21173
2719.27588	0.20958
2717.34731	0.20769
2715.41875	0.20597
2713.49019	0.20420
2711.56162	0.20232
2709.63306	0.20043
2707.70449	0.19854
2705.77593	0.19663
2703.84736	0.19486
2701.91880	0.19326
2699.99023	0.19177
2698.06167	0.19039
2696.13311	0.18914
2694.20454	0.18794
2692.27598	0.18650
2690.34741	0.18489
2688.41885	0.18349
2686.49028	0.18230
2684.56172	0.18116
2682.63315	0.17996
2680.70459	0.17875
2678.77603	0.17759
2676.84746	0.17643
2674.91890	0.17531
2672.99033	0.17421
2671.06177	0.17314
2669.13320	0.17218
2667.20464	0.17128
2665.27607	0.17036
2663.34751	0.16933
2661.41895	0.16831
2659.49038	0.16739
2657.56182	0.16648
2655.63325	0.16551
2653.70469	0.16460
2651.77612	0.16384
2649.84756	0.16328
2647.91899	0.16284
2645.99043	0.16230
2644.06187	0.16152
2642.13330	0.16079
2640.20474	0.16025
2638.27617	0.15968
2636.34761	0.15908
2634.41904	0.15858
2632.49048	0.15818
2630.56191	0.15777
2628.63335	0.15726
2626.70479	0.15667
2624.77622	0.15615
2622.84766	0.15578
2620.91909	0.15556
2618.99053	0.15540
2617.06196	0.15512
2615.13340	0.15482
2613.20483	0.15463
2611.27627	0.15443
2609.34771	0.15420
2607.41914	0.15404
2605.49058	0.15398
2603.56201	0.15397
2601.63345	0.15390
2599.70488	0.15370
2597.77632	0.15347
2595.84775	0.15337
2593.91919	0.15339
2591.99062	0.15344
2590.06206	0.15358
2588.13350	0.15376
2586.20493	0.15392
2584.27637	0.15406
2582.34780	0.15422
2580.41924	0.15436
2578.49067	0.15444
2576.56211	0.15457
2574.63354	0.15488
2572.70498	0.15531
2570.77642	0.15574
2568.84785	0.15607
2566.91929	0.15625
2564.99072	0.15643
2563.06216	0.15678
2561.13359	0.15721
2559.20503	0.15760
2557.27646	0.15797
2555.34790	0.15830
2553.41934	0.15859
2551.49077	0.15904
2549.56221	0.15972
2547.63364	0.16034
2545.70508	0.16068
2543.77651	0.16096
2541.84795	0.16148
2539.91938	0.16214
2537.99082	0.16279
2536.06226	0.16334
2534.13369	0.16379
2532.20513	0.16440
2530.27656	0.16520
2528.34800	0.16591
2526.41943	0.16649
2524.49087	0.16706
2522.56230	0.16763
2520.63374	0.16818
2518.70518	0.16874
2516.77661	0.16940
2514.84805	0.17011
2512.91948	0.17082
2510.99092	0.17159
2509.06235	0.17240
2507.13379	0.17319
2505.20522	0.17396
2503.27666	0.17475
2501.34810	0.17554
2499.41953	0.17625
2497.49097	0.17695
2495.56240	0.17775
2493.63384	0.17859
2491.70527	0.17937
2489.77671	0.18006
2487.84814	0.18073
2485.91958	0.18148
2483.99102	0.18236
2482.06245	0.18325
2480.13389	0.18407
2478.20532	0.18484
2476.27676	0.18565
2474.34819	0.18643
2472.41963	0.18718
2470.49106	0.18798
2468.56250	0.18881
2466.63394	0.18972
2464.70537	0.19065
2462.77681	0.19138
2460.84824	0.19207
2458.91968	0.19297
2456.99111	0.19389
2455.06255	0.19475
2453.13398	0.19560
2451.20542	0.19649
2449.27686	0.19747
2447.34829	0.19843
2445.41973	0.19934
2443.49116	0.20033
2441.56260	0.20125
2439.63403	0.20212
2437.70547	0.20316
2435.77690	0.20424
2433.84834	0.20521
2431.91978	0.20615
2429.99121	0.20708
2428.06265	0.20797
2426.13408	0.20888
2424.20552	0.20983
2422.27695	0.21097
2420.34839	0.21224
2418.41982	0.21326
2416.49126	0.21406
2414.56270	0.21508
2412.63413	0.21639
2410.70557	0.21762
2408.77700	0.21861
2406.84844	0.21961
2404.91987	0.22080
2402.99131	0.22195
2401.06274	0.22296
2399.13418	0.22401
2397.20562	0.22529
2395.27705	0.22668
2393.34849	0.22804
2391.41992	0.22929
2389.49136	0.23066
2387.56279	0.23268
2385.63423	0.23586
2383.70566	0.24053
2381.77710	0.24667
2379.84854	0.25404
2377.91997	0.26253
2375.99141	0.27253
2374.06284	0.28477
2372.13428	0.29902
2370.20571	0.31391
2368.27715	0.32832
2366.34858	0.34199
2364.42002	0.35434
2362.49146	0.36345
2360.56289	0.36848
2358.63433	0.36925
2356.70576	0.36449
2354.77720	0.35491
2352.84863	0.34225
2350.92007	0.32874
2348.99150	0.32034
2347.06294	0.32042
2345.13437	0.32960
2343.20581	0.34365
2341.27725	0.35258
2339.34868	0.35418
2337.42012	0.35317
2335.49155	0.35267
2333.56299	0.35222
2331.63442	0.35150
2329.70586	0.35071
2327.77729	0.34928
2325.84873	0.34607
2323.92017	0.34130
2321.99160	0.33672
2320.06304	0.33315
2318.13447	0.32964
2316.20591	0.32610
2314.27734	0.32378
2312.34878	0.32292
2310.42021	0.32235
2308.49165	0.32097
2306.56309	0.31887
2304.63452	0.31702
2302.70596	0.31628
2300.77739	0.31639
2298.84883	0.31654
2296.92026	0.31666
2294.99170	0.31699
2293.06313	0.31733
2291.13457	0.31746
2289.20601	0.31766
2287.27744	0.31812
2285.34888	0.31864
2283.42031	0.31944
2281.49175	0.32097
2279.56318	0.32314
2277.63462	0.32557
2275.70605	0.32796
2273.77749	0.33005
2271.84893	0.33193
2269.92036	0.33387
2267.99180	0.33596
2266.06323	0.33806
2264.13467	0.33997
2262.20610	0.34174
2260.27754	0.34360
2258.34897	0.34552
2256.42041	0.34730
2254.49185	0.34903
2252.56328	0.35089
2250.63472	0.35286
2248.70615	0.35477
2246.77759	0.35656
2244.84902	0.35838
2242.92046	0.36040
2240.99189	0.36256
2239.06333	0.36479
2237.13477	0.36707
2235.20620	0.36925
2233.27764	0.37130
2231.34907	0.37330
2229.42051	0.37533
2227.49194	0.37744
2225.56338	0.37958
2223.63481	0.38171
2221.70625	0.38392
2219.77769	0.38618
2217.84912	0.38840
2215.92056	0.39051
2213.99199	0.39259
2212.06343	0.39468
2210.13486	0.39672
2208.20630	0.39875
2206.27773	0.40080
2204.34917	0.40284
2202.42061	0.40483
2200.49204	0.40679
2198.56348	0.40876
2196.63491	0.41071
2194.70635	0.41263
2192.77778	0.41451
2190.84922	0.41631
2188.92065	0.41801
2186.99209	0.41970
2185.06353	0.42152
2183.13496	0.42338
2181.20640	0.42513
2179.27783	0.42673
2177.34927	0.42831
2175.42070	0.42979
2173.49214	0.43120
2171.56357	0.43260
2169.63501	0.43397
2167.70645	0.43535
2165.77788	0.43672
2163.84932	0.43794
2161.92075	0.43895
2159.99219	0.43985
2158.06362	0.44090
2156.13506	0.44210
2154.20649	0.44318
2152.27793	0.44401
2150.34937	0.44469
2148.42080	0.44524
2146.49224	0.44571
2144.56367	0.44618
2142.63511	0.44673
2140.70654	0.44727
2138.77798	0.44765
2136.84941	0.44778
2134.92085	0.44782
2132.99229	0.44791
2131.06372	0.44793
2129.13516	0.44778
2127.20659	0.44753
2125.27803	0.44726
2123.34946	0.44698
2121.42090	0.44663
2119.49233	0.44612
2117.56377	0.44548
2115.63521	0.44477
2113.70664	0.44413
2111.77808	0.44347
2109.84951	0.44256
2107.92095	0.44153
2105.99238	0.44049
2104.06382	0.43942
2102.13525	0.43825
2100.20669	0.43691
2098.27812	0.43544
2096.34956	0.43401
2094.42100	0.43271
2092.49243	0.43138
2090.56387	0.42981
2088.63530	0.42807
2086.70674	0.42635
2084.77817	0.42465
2082.84961	0.42291
2080.92104	0.42114
2078.99248	0.41935
2077.06392	0.41730
2075.13535	0.41506
2073.20679	0.41287
2071.27822	0.41070
2069.34966	0.40854
2067.42109	0.40637
2065.49253	0.40405
2063.56396	0.40155
2061.63540	0.39911
2059.70684	0.39686
2057.77827	0.39462
2055.84971	0.39222
2053.92114	0.38965
2051.99258	0.38709
2050.06401	0.38457
2048.13545	0.38196
2046.20688	0.37927
2044.27832	0.37665
2042.34976	0.37413
2040.42119	0.37161
2038.49263	0.36896
2036.56406	0.36619
2034.63550	0.36343
2032.70693	0.36073
2030.77837	0.35804
2028.84980	0.35537
2026.92124	0.35280
2024.99268	0.35024
2023.06411	0.34761
2021.13555	0.34491
2019.20698	0.34221
2017.27842	0.33955
2015.34985	0.33681
2013.42129	0.33401
2011.49272	0.33133
2009.56416	0.32873
2007.63560	0.32609
2005.70703	0.32342
2003.77847	0.32078
2001.84990	0.31819
1999.92134	0.31568
1997.99277	0.31317
1996.06421	0.31060
1994.13564	0.30817
1992.20708	0.30592
1990.27852	0.30353
1988.34995	0.30099
1986.42139	0.29843
1984.49282	0.29598
1982.56426	0.29371
1980.63569	0.29150
1978.70713	0.28920
1976.77856	0.28684
1974.85000	0.28463
1972.92144	0.28260
1970.99287	0.28062
1969.06431	0.27862
1967.13574	0.27660
1965.20718	0.27455
1963.27861	0.27252
1961.35005	0.27061
1959.42148	0.26875
1957.49292	0.26687
1955.56436	0.26497
1953.63579	0.26321
1951.70723	0.26158
1949.77866	0.25997
1947.85010	0.25831
1945.92153	0.25681
1943.99297	0.25559
1942.06440	0.25432
1940.13584	0.25276
1938.20728	0.25120
1936.27871	0.24984
1934.35015	0.24853
1932.42158	0.24723
1930.49302	0.24596
1928.56445	0.24479
1926.63589	0.24380
1924.70732	0.24309
1922.77876	0.24235
1920.85020	0.24132
1918.92163	0.24029
1916.99307	0.23936
1915.06450	0.23837
1913.13594	0.23742
1911.20737	0.23674
1909.27881	0.23612
1907.35024	0.23533
1905.42168	0.23448
1903.49312	0.23377
1901.56455	0.23317
1899.63599	0.23259
1897.70742	0.23210
1895.77886	0.23181
1893.85029	0.23164
1891.92173	0.23144
1889.99316	0.23133
1888.06460	0.23106
1886.13604	0.23061
1884.20747	0.23030
1882.27891	0.23009
1880.35034	0.22984
1878.42178	0.22965
1876.49321	0.22967
1874.56465	0.22973
1872.63608	0.22987
1870.70752	0.23027
1868.77896	0.23100
1866.85039	0.23137
1864.92183	0.23106
1862.99326	0.23083
1861.06470	0.23092
1859.13613	0.23115
1857.20757	0.23137
1855.27900	0.23176
1853.35044	0.23226
1851.42187	0.23281
1849.49331	0.23339
1847.56475	0.23416
1845.63618	0.23519
1843.70762	0.23624
1841.77905	0.23685
1839.85049	0.23715
1837.92192	0.23787
1835.99336	0.23879
1834.06479	0.23970
1832.13623	0.24076
1830.20767	0.24230
1828.27910	0.24377
1826.35054	0.24469
1824.42197	0.24583
1822.49341	0.24702
1820.56484	0.24808
1818.63628	0.24926
1816.70771	0.25083
1814.77915	0.25248
1812.85059	0.25422
1810.92202	0.25628
1808.99346	0.25840
1807.06489	0.26030
1805.13633	0.26215
1803.20776	0.26442
1801.27920	0.26703
1799.35063	0.26971
1797.42207	0.27200
1795.49351	0.27427
1793.56494	0.27711
1791.63638	0.28084
1789.70781	0.28416
1787.77925	0.28651
1785.85068	0.28949
1783.92212	0.29307
1781.99355	0.29693
1780.06499	0.30112
1778.13643	0.30539
1776.20786	0.30937
1774.27930	0.31369
1772.35073	0.31948
1770.42217	0.32555
1768.49360	0.33045
1766.56504	0.33525
1764.63647	0.34042
1762.70791	0.34629
1760.77935	0.35376
1758.85078	0.36074
1756.92222	0.36769
1754.99365	0.37521
1753.06509	0.38211
1751.13652	0.39051
1749.20796	0.40111
1747.27939	0.41136
1745.35083	0.42021
1743.42227	0.42965
1741.49370	0.44013
1739.56514	0.45241
1737.63657	0.46451
1735.70801	0.47492
1733.77944	0.49097
1731.85088	0.51051
1729.92231	0.52573
1727.99375	0.54096
1726.06519	0.55738
1724.13662	0.57537
1722.20806	0.59486
1720.27949	0.61289
1718.35093	0.63418
1716.42236	0.66582
1714.49380	0.69577
1712.56523	0.71992
1710.63667	0.74338
1708.70811	0.76895
1706.77954	0.79831
1704.85098	0.83326
1702.92241	0.86426
1700.99385	0.89513
1699.06528	0.94186
1697.13672	0.98556
1695.20815	1.03072
1693.27959	1.07443
1691.35103	1.10981
1689.42246	1.15142
1687.49390	1.19608
1685.56533	1.23916
1683.63677	1.30549
1681.70820	1.37488
1679.77964	1.41964
1677.85107	1.46237
1675.92251	1.51156
1673.99395	1.57255
1672.06538	1.62708
1670.13682	1.68105
1668.20825	1.75162
1666.27969	1.80978
1664.35112	1.86093
1662.42256	1.92719
1660.49399	2.00166
1658.56543	2.05902
1656.63687	2.10574
1654.70830	2.14954
1652.77974	2.21578
1650.85117	2.27347
1648.92261	2.29054
1646.99404	2.31195
1645.06548	2.33513
1643.13691	2.35045
1641.20835	2.35796
1639.27979	2.36359
1637.35122	2.36484
1635.42266	2.35905
1633.49409	2.34790
1631.56553	2.33281
1629.63696	2.31383
1627.70840	2.28254
1625.77983	2.24623
1623.85127	2.20038
1621.92271	2.14395
1619.99414	2.09441
1618.06558	2.04694
1616.13701	1.97953
1614.20845	1.91100
1612.27988	1.85922
1610.35132	1.80545
1608.42275	1.74677
1606.49419	1.68920
1604.56562	1.63698
1602.63706	1.58688
1600.70850	1.53785
1598.77993	1.49291
1596.85137	1.45108
1594.92280	1.41076
1592.99424	1.37227
1591.06567	1.33753
1589.13711	1.30574
1587.20854	1.27679
1585.27998	1.25043
1583.35142	1.22643
1581.42285	1.20510
1579.49429	1.18712
1577.56572	1.17164
1575.63716	1.15376
1573.70859	1.13822
1571.78003	1.12860
1569.85146	1.11989
1567.92290	1.11106
1565.99434	1.10529
1564.06577	1.10253
1562.13721	1.10167
1560.20864	1.10363
1558.28008	1.11266
1556.35151	1.12114
1554.42295	1.12549
1552.49438	1.13034
1550.56582	1.13339
1548.63726	1.13301
1546.70869	1.12929
1544.78013	1.12201
1542.85156	1.11066
1540.92300	1.09149
1538.99443	1.05867
1537.06587	1.03356
1535.13730	1.01643
1533.20874	0.99400
1531.28018	0.96998
1529.35161	0.95251
1527.42305	0.93607
1525.49448	0.91899
1523.56592	0.90460
1521.63735	0.89144
1519.70879	0.87858
1517.78022	0.86771
1515.85166	0.85466
1513.92310	0.84053
1511.99453	0.82795
1510.06597	0.81641
1508.13740	0.80517
1506.20884	0.78806
1504.28027	0.77331
1502.35171	0.76517
1500.42314	0.75826
1498.49458	0.75089
1496.56602	0.74191
1494.63745	0.73278
1492.70889	0.72598
1490.78032	0.72033
1488.85176	0.71373
1486.92319	0.70716
1484.99463	0.70203
1483.06606	0.69828
1481.13750	0.69537
1479.20894	0.69328
1477.28037	0.69236
1475.35181	0.69253
1473.42324	0.69340
1471.49468	0.69353
1469.56611	0.69215
1467.63755	0.69030
1465.70898	0.68878
1463.78042	0.68796
1461.85186	0.68786
1459.92329	0.68837
1457.99473	0.68965
1456.06616	0.69058
1454.13760	0.68890
1452.20903	0.68629
1450.28047	0.68370
1448.35190	0.68117
1446.42334	0.67844
1444.49478	0.67577
1442.56621	0.67316
1440.63765	0.67040
1438.70908	0.66777
1436.78052	0.66449
1434.85195	0.66021
1432.92339	0.65673
1430.99482	0.65462
1429.06626	0.65366
1427.13770	0.65350
1425.20913	0.65397
1423.28057	0.65512
1421.35200	0.65648
1419.42344	0.65771
1417.49487	0.65804
1415.56631	0.65722
1413.63774	0.65659
1411.70918	0.65686
1409.78062	0.65820
1407.85205	0.66025
1405.92349	0.66260
1403.99492	0.66483
1402.06636	0.66602
1400.13779	0.66597
1398.20923	0.66462
1396.28066	0.66190
1394.35210	0.65767
1392.42354	0.65255
1390.49497	0.64773
1388.56641	0.64298
1386.63784	0.63751
1384.70928	0.63172
1382.78071	0.62612
1380.85215	0.62080
1378.92358	0.61632
1376.99502	0.61303
1375.06646	0.61081
1373.13789	0.60933
1371.20933	0.60847
1369.28076	0.60781
1367.35220	0.60661
1365.42363	0.60496
1363.49507	0.60342
1361.56650	0.60191
1359.63794	0.60030
1357.70937	0.59875
1355.78081	0.59729
1353.85225	0.59604
1351.92368	0.59506
1349.99512	0.59432
1348.06655	0.59364
1346.13799	0.59279
1344.20942	0.59192
1342.28086	0.59136
1340.35229	0.59104
1338.42373	0.59045
1336.49517	0.58969
1334.56660	0.58924
1332.63804	0.58917
1330.70947	0.58950
1328.78091	0.59024
1326.85234	0.59122
1324.92378	0.59226
1322.99521	0.59330
1321.06665	0.59427
1319.13809	0.59523
1317.20952	0.59599
1315.28096	0.59620
1313.35239	0.59589
1311.42383	0.59533
1309.49526	0.59479
1307.56670	0.59443
1305.63813	0.59413
1303.70957	0.59369
1301.78101	0.59307
1299.85244	0.59208
1297.92388	0.59074
1295.99531	0.58944
1294.06675	0.58833
1292.13818	0.58719
1290.20962	0.58593
1288.28105	0.58469
1286.35249	0.58344
1284.42393	0.58202
1282.49536	0.58037
1280.56680	0.57871
1278.63823	0.57717
1276.70967	0.57565
1274.78110	0.57429
1272.85254	0.57331
1270.92397	0.57258
1268.99541	0.57186
1267.06685	0.57106
1265.13828	0.57011
1263.20972	0.56913
1261.28115	0.56823
1259.35259	0.56734
1257.42402	0.56658
1255.49546	0.56619
1253.56689	0.56616
1251.63833	0.56638
1249.70977	0.56658
1247.78120	0.56659
1245.85264	0.56632
1243.92407	0.56558
1241.99551	0.56440
1240.06694	0.56291
1238.13838	0.56098
1236.20981	0.55852
1234.28125	0.55574
1232.35269	0.55296
1230.42412	0.55040
1228.49556	0.54819
1226.56699	0.54613
1224.63843	0.54407
1222.70986	0.54204
1220.78130	0.54022
1218.85273	0.53868
1216.92417	0.53739
1214.99561	0.53625
1213.06704	0.53516
1211.13848	0.53415
1209.20991	0.53328
1207.28135	0.53259
1205.35278	0.53185
1203.42422	0.53075
1201.49565	0.52953
1199.56709	0.52862
1197.63853	0.52801
1195.70996	0.52739
1193.78140	0.52674
1191.85283	0.52609
1189.92427	0.52543
1187.99570	0.52494
1186.06714	0.52475
1184.13857	0.52489
1182.21001	0.52541
1180.28145	0.52633
1178.35288	0.52760
1176.42432	0.52909
1174.49575	0.53054
1172.56719	0.53151
1170.63862	0.53185
1168.71006	0.53181
1166.78149	0.53161
1164.85293	0.53139
1162.92437	0.53129
1160.99580	0.53125
1159.06724	0.53102
1157.13867	0.53037
1155.21011	0.52931
1153.28154	0.52800
1151.35298	0.52637
1149.42441	0.52434
1147.49585	0.52198
1145.56729	0.51944
1143.63872	0.51685
1141.71016	0.51444
1139.78159	0.51244
1137.85303	0.51089
1135.92446	0.51000
1133.99590	0.50987
1132.06733	0.51004
1130.13877	0.51010
1128.21021	0.51009
1126.28164	0.50993
1124.35308	0.50955
1122.42451	0.50927
1120.49595	0.50938
1118.56738	0.50985
1116.63882	0.51055
1114.71025	0.51128
1112.78169	0.51192
1110.85312	0.51270
1108.92456	0.51372
1106.99600	0.51476
1105.06743	0.51570
1103.13887	0.51659
1101.21030	0.51749
1099.28174	0.51860
1097.35317	0.52031
1095.42461	0.52294
1093.49604	0.52652
1091.56748	0.53120
1089.63892	0.53723
1087.71035	0.54469
1085.78179	0.55306
1083.85322	0.56121
1081.92466	0.56820
1079.99609	0.57334
1078.06753	0.57594
1076.13896	0.57568
1074.21040	0.57257
1072.28184	0.56714
1070.35327	0.56020
1068.42471	0.55262
1066.49614	0.54550
1064.56758	0.53922
1062.63901	0.53352
1060.71045	0.52839
1058.78188	0.52407
1056.85332	0.52053
1054.92476	0.51740
1052.99619	0.51444
1051.06763	0.51188
1049.13906	0.51000
1047.21050	0.50882
1045.28193	0.50814
1043.35337	0.50783
1041.42480	0.50776
1039.49624	0.50761
1037.56768	0.50725
1035.63911	0.50695
1033.71055	0.50664
1031.78198	0.50591
1029.85342	0.50454
1027.92485	0.50282
1025.99629	0.50107
1024.06772	0.49955
1022.13916	0.49847
1020.21060	0.49776
1018.28203	0.49743
1016.35347	0.49744
1014.42490	0.49740
1012.49634	0.49715
1010.56777	0.49690
1008.63921	0.49668
1006.71064	0.49674
1004.78208	0.49748
1002.85352	0.49906
1000.92495	0.50151
998.99639	0.50488
997.06782	0.50898
995.13926	0.51338
993.21069	0.51769
991.28213	0.52133
989.35356	0.52355
987.42500	0.52413
985.49644	0.52371
983.56787	0.52342
981.63931	0.52354
979.71074	0.52381
977.78218	0.52467
975.85361	0.52648
973.92505	0.52893
971.99648	0.53171
970.06792	0.53481
968.13936	0.53841
966.21079	0.54239
964.28223	0.54652
962.35366	0.55090
960.42510	0.55565
958.49653	0.56088
956.56797	0.56654
954.63940	0.57215
952.71084	0.57783
950.78228	0.58422
948.85371	0.59103
946.92515	0.59723
944.99658	0.60271
943.06802	0.60840
941.13945	0.61452
939.21089	0.62067
937.28232	0.62677
935.35376	0.63271
933.42520	0.63846
931.49663	0.64421
929.56807	0.65017
927.63950	0.65635
925.71094	0.66227
923.78237	0.66798
921.85381	0.67378
919.92524	0.67958
917.99668	0.68579
916.06812	0.69314
914.13955	0.70140
912.21099	0.70977
910.28242	0.71772
908.35386	0.72527
906.42529	0.73348
904.49673	0.74285
902.56816	0.75223
900.63960	0.76126
898.71104	0.77057
896.78247	0.77982
894.85391	0.78870
892.92534	0.79814
890.99678	0.80883
889.06821	0.81985
887.13965	0.83054
885.21108	0.84132
883.28252	0.85213
881.35396	0.86222
879.42539	0.87166
877.49683	0.88202
875.56826	0.89477
873.63970	0.90884
871.71113	0.92161
869.78257	0.93254
867.85400	0.94295
865.92544	0.95375
863.99687	0.96439
862.06831	0.97490
860.13975	0.98627
858.21118	0.99875
856.28262	1.01248
854.35405	1.02656
852.42549	1.03938
850.49692	1.05058
848.56836	1.06036
846.63979	1.06980
844.71123	1.08073
842.78267	1.09303
840.85410	1.10546
838.92554	1.11707
836.99697	1.12769
835.06841	1.14020
833.13984	1.15612
831.21128	1.17056
829.28271	1.17760
827.35415	1.17871
825.42559	1.18350
823.49702	1.19820
821.56846	1.21581
819.63989	1.22975
817.71133	1.24808
815.78276	1.27038
813.85420	1.28240
811.92563	1.28676
809.99707	1.29170
808.06851	1.29327
806.13994	1.28971
804.21138	1.30005
802.28281	1.34930
800.35425	1.41307
798.42568	1.43295
796.49712	1.41780
794.56855	1.41937
792.63999	1.45248
790.71143	1.49832
788.78286	1.56060
786.85430	1.60544
784.92573	1.54107
782.99717	1.43763
781.06860	1.38755
779.14004	1.39491
777.21147	1.41485
775.28291	1.44402
773.35435	1.54921
771.42578	1.73240
769.49722	1.88615
767.56865	2.29906
765.64009	4.59384
763.71152	1.89020
761.78296	1.53305
759.85439	1.50407
757.92583	1.56703
755.99727	1.46260
754.06870	1.39499
752.14014	1.37970
750.21157	1.26095
748.28301	1.22475
746.35444	1.46387
744.42588	1.95916
742.49731	1.28727
740.56875	0.94589
738.64019	0.79171
736.71162	0.74426
734.78306	0.77379
732.85449	0.78421
730.92593	0.66841
728.99736	0.50848
727.06880	0.42941
725.14023	0.42843
723.21167	0.42370
721.28311	0.47631
719.35454	0.56628
717.42598	0.63286
715.49741	0.83099
713.56885	0.73164
711.64028	0.54222
709.71172	0.46308
707.78315	0.52924
705.85459	0.51856
703.92603	0.35055
701.99746	0.28491
700.06890	0.28245
698.14033	0.24127
696.21177	0.18217
694.28320	0.17879
692.35464	0.24602
690.42607	0.39896
688.49751	0.55158
686.56895	0.51877
684.64038	0.46577
682.71182	0.52094
680.78325	0.34775
678.85469	0.13572
676.92612	0.05612
674.99756	0.11123
673.06899	0.20310
671.14043	0.37043
669.21187	0.68493
667.28330	0.81326
665.35474	0.48176
663.42617	0.27698
661.49761	0.26635
659.56904	0.33215
657.64048	0.41352
655.71191	0.42303
653.78335	0.34080
651.85479	0.25207
649.92622	0.18697
647.99766	0.18662
646.06909	0.27912
644.14053	0.34673
642.21196	0.28083
640.28340	0.22400
638.35483	0.20800
636.42627	0.19467
634.49771	0.18295
632.56914	0.17060
630.64058	0.20093
628.71201	0.29650
626.78345	0.37140
624.85488	0.37540
622.92632	0.34898
620.99775	0.31558
619.06919	0.26399
617.14062	0.20425
615.21206	0.15184
613.28350	0.11822
611.35493	0.15574
609.42637	0.25858
607.49780	0.33267
605.56924	0.36863
603.64067	0.40147
601.71211	0.35453
599.78354	0.24183
597.85498	0.20520
595.92642	0.26570
593.99785	0.36652
592.06929	0.33915
590.14072	0.19495
588.21216	0.14847
586.28359	0.32187
584.35503	0.56847
582.42646	0.50499
580.49790	0.35279
578.56934	0.31438
576.64077	0.38030
574.71221	0.41787
572.78364	0.44786
570.85508	0.80588
568.92651	3.41356
566.99795	1.02511
565.06938	0.45610
563.14082	0.40008
561.21226	0.36992
559.28369	0.27565
557.35513	0.22371
555.42656	0.21795
553.49800	0.26101
551.56943	0.33133
549.64087	0.28455
547.71230	0.22511
545.78374	0.35454
543.85518	0.53545
541.92661	0.41222
539.99805	0.35152
538.06948	0.41294
536.14092	0.35672
534.21235	0.22866
532.28379	0.16987
530.35522	0.18188
528.42666	0.23014
526.49810	0.25716
524.56953	0.25044
522.64097	0.24870
520.71240	0.24233
518.78384	0.23407
516.85527	0.23534
514.92671	0.21585
512.99814	0.20894
511.06958	0.25107
509.14102	0.29908
507.21245	0.29468
505.28389	0.25859
503.35532	0.30470
501.42676	0.54565
499.49819	0.90176
