3997.91411	0.06359
3995.98555	0.06377
3994.05698	0.06422
3992.12842	0.06447
3990.19985	0.06457
3988.27129	0.06505
3986.34272	0.06573
3984.41416	0.06606
3982.48560	0.06600
3980.55703	0.06597
3978.62847	0.06612
3976.69990	0.06636
3974.77134	0.06682
3972.84277	0.06732
3970.91421	0.06745
3968.98564	0.06718
3967.05708	0.06686
3965.12852	0.06693
3963.19995	0.06748
3961.27139	0.06807
3959.34282	0.06824
3957.41426	0.06801
3955.48569	0.06783
3953.55713	0.06784
3951.62856	0.06794
3949.70000	0.06830
3947.77144	0.06894
3945.84287	0.06920
3943.91431	0.06881
3941.98574	0.06845
3940.05718	0.06830
3938.12861	0.06798
3936.20005	0.06773
3934.27148	0.06795
3932.34292	0.06825
3930.41436	0.06840
3928.48579	0.06849
3926.55723	0.06812
3924.62866	0.06769
3922.70010	0.06783
3920.77153	0.06788
3918.84297	0.06749
3916.91440	0.06745
3914.98584	0.06794
3913.05728	0.06804
3911.12871	0.06764
3909.20015	0.06742
3907.27158	0.06758
3905.34302	0.06780
3903.41445	0.06822
3901.48589	0.06880
3899.55732	0.06869
3897.62876	0.06801
3895.70020	0.06761
3893.77163	0.06734
3891.84307	0.06717
3889.91450	0.06761
3887.98594	0.06814
3886.05737	0.06837
3884.12881	0.06845
3882.20024	0.06820
3880.27168	0.06812
3878.34312	0.06860
3876.41455	0.06894
3874.48599	0.06872
3872.55742	0.06833
3870.62886	0.06824
3868.70029	0.06870
3866.77173	0.06955
3864.84316	0.07008
3862.91460	0.07010
3860.98604	0.07020
3859.05747	0.07058
3857.12891	0.07076
3855.20034	0.07061
3853.27178	0.07064
3851.34321	0.07183
3849.41465	0.07298
3847.48608	0.07358
3845.55752	0.07410
3843.62896	0.07469
3841.70039	0.07517
3839.77183	0.07517
3837.84326	0.07538
3835.91470	0.07659
3833.98613	0.07781
3832.05757	0.07863
3830.12900	0.07957
3828.20044	0.08043
3826.27187	0.08100
3824.34331	0.08148
3822.41475	0.08187
3820.48618	0.08230
3818.55762	0.08284
3816.62905	0.08376
3814.70049	0.08544
3812.77192	0.08698
3810.84336	0.08779
3808.91479	0.08852
3806.98623	0.08977
3805.05767	0.09122
3803.12910	0.09192
3801.20054	0.09283
3799.27197	0.09480
3797.34341	0.09615
3795.41484	0.09646
3793.48628	0.09668
3791.55771	0.09759
3789.62915	0.09927
3787.70059	0.10120
3785.77202	0.10297
3783.84346	0.10474
3781.91489	0.10625
3779.98633	0.10748
3778.05776	0.10916
3776.12920	0.11100
3774.20063	0.11252
3772.27207	0.11394
3770.34351	0.11545
3768.41494	0.11721
3766.48638	0.11915
3764.55781	0.12134
3762.62925	0.12344
3760.70068	0.12521
3758.77212	0.12719
3756.84355	0.12957
3754.91499	0.13184
3752.98643	0.13385
3751.05786	0.13620
3749.12930	0.13933
3747.20073	0.14202
3745.27217	0.14456
3743.34360	0.14895
3741.41504	0.15325
3739.48647	0.15561
3737.55791	0.15812
3735.62935	0.16210
3733.70078	0.16706
3731.77222	0.17151
3729.84365	0.17570
3727.91509	0.18024
3725.98652	0.18550
3724.05796	0.19172
3722.12939	0.19905
3720.20083	0.20737
3718.27227	0.21586
3716.34370	0.22431
3714.41514	0.23235
3712.48657	0.24076
3710.55801	0.25257
3708.62944	0.26717
3706.70088	0.27996
3704.77231	0.29150
3702.84375	0.30439
3700.91519	0.32132
3698.98662	0.34060
3697.05806	0.35887
3695.12949	0.37767
3693.20093	0.39731
3691.27236	0.41858
3689.34380	0.44670
3687.41523	0.48203
3685.48667	0.51353
3683.55811	0.54080
3681.62954	0.56946
3679.70098	0.60116
3677.77241	0.63408
3675.84385	0.67213
3673.91528	0.72448
3671.98672	0.76925
3670.05815	0.80900
3668.12959	0.86363
3666.20103	0.91417
3664.27246	0.95573
3662.34390	0.99966
3660.41533	1.04734
3658.48677	1.09426
3656.55820	1.14355
3654.62964	1.19848
3652.70107	1.24445
3650.77251	1.28364
3648.84395	1.33793
3646.91538	1.40644
3644.98682	1.45830
3643.05825	1.49875
3641.12969	1.53979
3639.20112	1.58434
3637.27256	1.62883
3635.34399	1.67203
3633.41543	1.71439
3631.48687	1.75285
3629.55830	1.79161
3627.62974	1.84456
3625.70117	1.89681
3623.77261	1.93297
3621.84404	1.96699
3619.91548	2.00537
3617.98691	2.05113
3616.05835	2.09451
3614.12979	2.13014
3612.20122	2.16816
3610.27266	2.20713
3608.34409	2.24606
3606.41553	2.28769
3604.48696	2.32720
3602.55840	2.36212
3600.62983	2.39906
3598.70127	2.43994
3596.77271	2.48010
3594.84414	2.51971
3592.91558	2.56007
3590.98701	2.59906
3589.05845	2.63636
3587.12988	2.68023
3585.20132	2.72873
3583.27275	2.77062
3581.34419	2.80867
3579.41562	2.84877
3577.48706	2.89169
3575.55850	2.93487
3573.62993	2.97765
3571.70137	3.01864
3569.77280	3.05757
3567.84424	3.09807
3565.91567	3.15020
3563.98711	3.20510
3562.05854	3.24866
3560.12998	3.28945
3558.20142	3.33347
3556.27285	3.37874
3554.34429	3.42124
3552.41572	3.46303
3550.48716	3.50628
3548.55859	3.54998
3546.63003	3.59574
3544.70146	3.64504
3542.77290	3.69305
3540.84434	3.73873
3538.91577	3.78499
3536.98721	3.83090
3535.05864	3.87786
3533.13008	3.92525
3531.20151	3.97152
3529.27295	4.01764
3527.34438	4.06595
3525.41582	4.11342
3523.48726	4.15747
3521.55869	4.20454
3519.63013	4.25536
3517.70156	4.30785
3515.77300	4.35976
3513.84443	4.40523
3511.91587	4.44746
3509.98730	4.49823
3508.05874	4.55497
3506.13018	4.60346
3504.20161	4.64224
3502.27305	4.68128
3500.34448	4.72620
3498.41592	4.77530
3496.48735	4.82903
3494.55879	4.88285
3492.63022	4.93131
3490.70166	4.97766
3488.77310	5.02348
3486.84453	5.06789
3484.91597	5.11394
3482.98740	5.16508
3481.05884	5.21713
3479.13027	5.26075
3477.20171	5.30307
3475.27314	5.35661
3473.34458	5.41648
3471.41602	5.47389
3469.48745	5.52509
3467.55889	5.56805
3465.63032	5.60906
3463.70176	5.65651
3461.77319	5.70810
3459.84463	5.76283
3457.91606	5.82044
3455.98750	5.87654
3454.05894	5.92010
3452.13037	5.95324
3450.20181	6.00126
3448.27324	6.06496
3446.34468	6.12372
3444.41611	6.16541
3442.48755	6.20233
3440.55898	6.24725
3438.63042	6.29510
3436.70186	6.34968
3434.77329	6.40473
3432.84473	6.43524
3430.91616	6.45248
3428.98760	6.49076
3427.05903	6.56005
3425.13047	6.65168
3423.20190	6.72837
3421.27334	6.77275
3419.34478	6.79462
3417.41621	6.79862
3415.48765	6.81119
3413.55908	6.85940
3411.63052	6.94261
3409.70195	7.02341
3407.77339	7.07642
3405.84482	7.10590
3403.91626	7.12434
3401.98770	7.14851
3400.05913	7.20639
3398.13057	7.28930
3396.20200	7.34381
3394.27344	7.35444
3392.34487	7.36354
3390.41631	7.41168
3388.48774	7.45139
3386.55918	7.44462
3384.63062	7.43348
3382.70205	7.48496
3380.77349	7.60564
3378.84492	7.70845
3376.91636	7.73739
3374.98779	7.74070
3373.05923	7.77597
3371.13066	7.81153
3369.20210	7.81412
3367.27354	7.77806
3365.34497	7.75852
3363.41641	7.79746
3361.48784	7.86368
3359.55928	7.93734
3357.63071	7.98902
3355.70215	8.00004
3353.77358	7.95412
3351.84502	7.91224
3349.91646	7.93018
3347.98789	7.98208
3346.05933	8.01509
3344.13076	7.98931
3342.20220	7.94625
3340.27363	7.95480
3338.34507	8.01728
3336.41650	8.06225
3334.48794	8.09538
3332.55937	8.14925
3330.63081	8.20356
3328.70225	8.19076
3326.77368	8.09509
3324.84512	8.01596
3322.91655	7.98807
3320.98799	7.97401
3319.05942	7.94735
3317.13086	7.94870
3315.20229	7.99248
3313.27373	8.05939
3311.34517	8.12364
3309.41660	8.15238
3307.48804	8.15716
3305.55947	8.17780
3303.63091	8.21386
3301.70234	8.21529
3299.77378	8.20263
3297.84521	8.18272
3295.91665	8.16162
3293.98809	8.14646
3292.05952	8.12881
3290.13096	8.13246
3288.20239	8.16951
3286.27383	8.23681
3284.34526	8.24041
3282.41670	8.16635
3280.48813	8.15149
3278.55957	8.21844
3276.63101	8.24709
3274.70244	8.23818
3272.77388	8.24504
3270.84531	8.17747
3268.91675	8.04355
3266.98818	7.95786
3265.05962	7.99657
3263.13105	8.12969
3261.20249	8.21924
3259.27393	8.18805
3257.34536	8.13856
3255.41680	8.17661
3253.48823	8.24220
3251.55967	8.19032
3249.63110	8.06682
3247.70254	8.06160
3245.77397	8.15478
3243.84541	8.17042
3241.91685	8.17831
3239.98828	8.27568
3238.05972	8.27756
3236.13115	8.16540
3234.20259	8.08050
3232.27402	7.99113
3230.34546	7.94008
3228.41689	7.97728
3226.48833	8.01103
3224.55977	8.00204
3222.63120	8.00870
3220.70264	8.05173
3218.77407	8.05368
3216.84551	7.95933
3214.91694	7.86821
3212.98838	7.83776
3211.05981	7.85485
3209.13125	7.87822
3207.20269	7.83705
3205.27412	7.76851
3203.34556	7.71639
3201.41699	7.66984
3199.48843	7.63156
3197.55986	7.59756
3195.63130	7.54215
3193.70273	7.45969
3191.77417	7.41505
3189.84561	7.42877
3187.91704	7.43717
3185.98848	7.40566
3184.05991	7.33882
3182.13135	7.24952
3180.20278	7.17310
3178.27422	7.13981
3176.34565	7.13320
3174.41709	7.10277
3172.48853	7.04437
3170.55996	6.99406
3168.63140	6.95340
3166.70283	6.89665
3164.77427	6.81284
3162.84570	6.72553
3160.91714	6.65808
3158.98857	6.59608
3157.06001	6.52685
3155.13145	6.45265
3153.20288	6.36665
3151.27432	6.28477
3149.34575	6.22626
3147.41719	6.17011
3145.48862	6.10086
3143.56006	6.03155
3141.63149	5.96653
3139.70293	5.89830
3137.77437	5.82392
3135.84580	5.75396
3133.91724	5.69718
3131.98867	5.63299
3130.06011	5.55221
3128.13154	5.47544
3126.20298	5.40786
3124.27441	5.33891
3122.34585	5.26360
3120.41729	5.18678
3118.48872	5.11405
3116.56016	5.04624
3114.63159	4.98110
3112.70303	4.91465
3110.77446	4.84165
3108.84590	4.76466
3106.91733	4.69401
3104.98877	4.63102
3103.06021	4.56916
3101.13164	4.50362
3099.20308	4.43683
3097.27451	4.37299
3095.34595	4.31034
3093.41738	4.24502
3091.48882	4.17619
3089.56025	4.10722
3087.63169	4.04069
3085.70312	3.97689
3083.77456	3.91543
3081.84600	3.85556
3079.91743	3.79495
3077.98887	3.73211
3076.06030	3.67020
3074.13174	3.61134
3072.20317	3.55365
3070.27461	3.49584
3068.34604	3.43939
3066.41748	3.38429
3064.48892	3.32841
3062.56035	3.27186
3060.63179	3.21594
3058.70322	3.16150
3056.77466	3.10946
3054.84609	3.05867
3052.91753	3.00712
3050.98896	2.95490
3049.06040	2.90335
3047.13184	2.85372
3045.20327	2.80562
3043.27471	2.75798
3041.34614	2.71070
3039.41758	2.66364
3037.48901	2.61680
3035.56045	2.57063
3033.63188	2.52586
3031.70332	2.48198
3029.77476	2.43733
3027.84619	2.39342
3025.91763	2.35283
3023.98906	2.31358
3022.06050	2.27274
3020.13193	2.23146
3018.20337	2.19189
3016.27480	2.15368
3014.34624	2.11533
3012.41768	2.07650
3010.48911	2.03883
3008.56055	2.00360
3006.63198	1.96928
3004.70342	1.93397
3002.77485	1.89817
3000.84629	1.86359
2998.91772	1.83024
2996.98916	1.79713
2995.06060	1.76431
2993.13203	1.73218
2991.20347	1.70088
2989.27490	1.67024
2987.34634	1.63953
2985.41777	1.60863
2983.48921	1.57865
2981.56064	1.55003
2979.63208	1.52187
2977.70352	1.49374
2975.77495	1.46596
2973.84639	1.43855
2971.91782	1.41170
2969.98926	1.38554
2968.06069	1.35937
2966.13213	1.33306
2964.20356	1.30772
2962.27500	1.28361
2960.34644	1.25999
2958.41787	1.23652
2956.48931	1.21331
2954.56074	1.19058
2952.63218	1.16851
2950.70361	1.14724
2948.77505	1.12634
2946.84648	1.10527
2944.91792	1.08434
2942.98936	1.06398
2941.06079	1.04410
2939.13223	1.02454
2937.20366	1.00531
2935.27510	0.98641
2933.34653	0.96776
2931.41797	0.94938
2929.48940	0.93145
2927.56084	0.91424
2925.63228	0.89781
2923.70371	0.88197
2921.77515	0.86616
2919.84658	0.85008
2917.91802	0.83421
2915.98945	0.81894
2914.06089	0.80416
2912.13232	0.78968
2910.20376	0.77541
2908.27520	0.76125
2906.34663	0.74752
2904.41807	0.73433
2902.48950	0.72138
2900.56094	0.70873
2898.63237	0.69642
2896.70381	0.68418
2894.77524	0.67222
2892.84668	0.66087
2890.91812	0.64970
2888.98955	0.63838
2887.06099	0.62727
2885.13242	0.61653
2883.20386	0.60571
2881.27529	0.59460
2879.34673	0.58373
2877.41816	0.57360
2875.48960	0.56396
2873.56104	0.55428
2871.63247	0.54476
2869.70391	0.53551
2867.77534	0.52614
2865.84678	0.51679
2863.91821	0.50775
2861.98965	0.49882
2860.06108	0.48981
2858.13252	0.48102
2856.20396	0.47272
2854.27539	0.46481
2852.34683	0.45709
2850.41826	0.44959
2848.48970	0.44247
2846.56113	0.43546
2844.63257	0.42823
2842.70400	0.42122
2840.77544	0.41499
2838.84687	0.40938
2836.91831	0.40386
2834.98975	0.39820
2833.06118	0.39245
2831.13262	0.38665
2829.20405	0.38096
2827.27549	0.37541
2825.34692	0.36976
2823.41836	0.36406
2821.48979	0.35849
2819.56123	0.35303
2817.63267	0.34763
2815.70410	0.34241
2813.77554	0.33731
2811.84697	0.33218
2809.91841	0.32718
2807.98984	0.32244
2806.06128	0.31770
2804.13271	0.31294
2802.20415	0.30844
2800.27559	0.30414
2798.34702	0.29970
2796.41846	0.29521
2794.48989	0.29092
2792.56133	0.28697
2790.63276	0.28320
2788.70420	0.27926
2786.77563	0.27506
2784.84707	0.27092
2782.91851	0.26705
2780.98994	0.26347
2779.06138	0.26023
2777.13281	0.25704
2775.20425	0.25357
2773.27568	0.25007
2771.34712	0.24689
2769.41855	0.24379
2767.48999	0.24051
2765.56143	0.23715
2763.63286	0.23391
2761.70430	0.23091
2759.77573	0.22808
2757.84717	0.22522
2755.91860	0.22235
2753.99004	0.21960
2752.06147	0.21698
2750.13291	0.21436
2748.20435	0.21180
2746.27578	0.20939
2744.34722	0.20696
2742.41865	0.20462
2740.49009	0.20261
2738.56152	0.20059
2736.63296	0.19822
2734.70439	0.19576
2732.77583	0.19346
2730.84727	0.19131
2728.91870	0.18933
2726.99014	0.18753
2725.06157	0.18584
2723.13301	0.18409
2721.20444	0.18214
2719.27588	0.18018
2717.34731	0.17842
2715.41875	0.17673
2713.49019	0.17501
2711.56162	0.17339
2709.63306	0.17180
2707.70449	0.17019
2705.77593	0.16873
2703.84736	0.16734
2701.91880	0.16596
2699.99023	0.16461
2698.06167	0.16321
2696.13311	0.16172
2694.20454	0.16030
2692.27598	0.15916
2690.34741	0.15818
2688.41885	0.15710
2686.49028	0.15595
2684.56172	0.15482
2682.63315	0.15354
2680.70459	0.15227
2678.77603	0.15132
2676.84746	0.15053
2674.91890	0.14965
2672.99033	0.14864
2671.06177	0.14762
2669.13320	0.14679
2667.20464	0.14613
2665.27607	0.14542
2663.34751	0.14451
2661.41895	0.14351
2659.49038	0.14270
2657.56182	0.14215
2655.63325	0.14169
2653.70469	0.14115
2651.77612	0.14057
2649.84756	0.14011
2647.91899	0.13973
2645.99043	0.13936
2644.06187	0.13899
2642.13330	0.13852
2640.20474	0.13803
2638.27617	0.13760
2636.34761	0.13723
2634.41904	0.13687
2632.49048	0.13650
2630.56191	0.13610
2628.63335	0.13585
2626.70479	0.13580
2624.77622	0.13570
2622.84766	0.13549
2620.91909	0.13534
2618.99053	0.13522
2617.06196	0.13506
2615.13340	0.13498
2613.20483	0.13494
2611.27627	0.13485
2609.34771	0.13480
2607.41914	0.13485
2605.49058	0.13494
2603.56201	0.13505
2601.63345	0.13522
2599.70488	0.13542
2597.77632	0.13554
2595.84775	0.13562
2593.91919	0.13570
2591.99062	0.13587
2590.06206	0.13607
2588.13350	0.13620
2586.20493	0.13646
2584.27637	0.13683
2582.34780	0.13703
2580.41924	0.13710
2578.49067	0.13728
2576.56211	0.13766
2574.63354	0.13818
2572.70498	0.13872
2570.77642	0.13911
2568.84785	0.13939
2566.91929	0.13973
2564.99072	0.14022
2563.06216	0.14079
2561.13359	0.14135
2559.20503	0.14189
2557.27646	0.14236
2555.34790	0.14288
2553.41934	0.14354
2551.49077	0.14420
2549.56221	0.14481
2547.63364	0.14537
2545.70508	0.14586
2543.77651	0.14639
2541.84795	0.14709
2539.91938	0.14788
2537.99082	0.14864
2536.06226	0.14943
2534.13369	0.15026
2532.20513	0.15097
2530.27656	0.15148
2528.34800	0.15201
2526.41943	0.15277
2524.49087	0.15370
2522.56230	0.15466
2520.63374	0.15556
2518.70518	0.15633
2516.77661	0.15702
2514.84805	0.15779
2512.91948	0.15872
2510.99092	0.15973
2509.06235	0.16067
2507.13379	0.16156
2505.20522	0.16236
2503.27666	0.16311
2501.34810	0.16386
2499.41953	0.16466
2497.49097	0.16549
2495.56240	0.16635
2493.63384	0.16719
2491.70527	0.16802
2489.77671	0.16895
2487.84814	0.16996
2485.91958	0.17083
2483.99102	0.17159
2482.06245	0.17250
2480.13389	0.17360
2478.20532	0.17471
2476.27676	0.17583
2474.34819	0.17691
2472.41963	0.17784
2470.49106	0.17862
2468.56250	0.17940
2466.63394	0.18029
2464.70537	0.18124
2462.77681	0.18213
2460.84824	0.18304
2458.91968	0.18409
2456.99111	0.18519
2455.06255	0.18625
2453.13398	0.18718
2451.20542	0.18808
2449.27686	0.18915
2447.34829	0.19032
2445.41973	0.19141
2443.49116	0.19245
2441.56260	0.19339
2439.63403	0.19430
2437.70547	0.19541
2435.77690	0.19656
2433.84834	0.19757
2431.91978	0.19857
2429.99121	0.19960
2428.06265	0.20072
2426.13408	0.20188
2424.20552	0.20295
2422.27695	0.20387
2420.34839	0.20482
2418.41982	0.20601
2416.49126	0.20740
2414.56270	0.20874
2412.63413	0.20997
2410.70557	0.21113
2408.77700	0.21227
2406.84844	0.21344
2404.91987	0.21464
2402.99131	0.21588
2401.06274	0.21710
2399.13418	0.21824
2397.20562	0.21935
2395.27705	0.22058
2393.34849	0.22194
2391.41992	0.22336
2389.49136	0.22462
2387.56279	0.22551
2385.63423	0.22604
2383.70566	0.22628
2381.77710	0.22619
2379.84854	0.22580
2377.91997	0.22494
2375.99141	0.22336
2374.06284	0.22132
2372.13428	0.21932
2370.20571	0.21732
2368.27715	0.21455
2366.34858	0.21105
2364.42002	0.20809
2362.49146	0.20723
2360.56289	0.20877
2358.63433	0.21154
2356.70576	0.21542
2354.77720	0.22057
2352.84863	0.22656
2350.92007	0.23248
2348.99150	0.23626
2347.06294	0.23709
2345.13437	0.23564
2343.20581	0.23397
2341.27725	0.23427
2339.34868	0.23557
2337.42012	0.23710
2335.49155	0.23954
2333.56299	0.24251
2331.63442	0.24582
2329.70586	0.24912
2327.77729	0.25174
2325.84873	0.25426
2323.92017	0.25746
2321.99160	0.26117
2320.06304	0.26484
2318.13447	0.26816
2316.20591	0.27111
2314.27734	0.27377
2312.34878	0.27619
2310.42021	0.27857
2308.49165	0.28109
2306.56309	0.28381
2304.63452	0.28661
2302.70596	0.28922
2300.77739	0.29155
2298.84883	0.29381
2296.92026	0.29612
2294.99170	0.29848
2293.06313	0.30092
2291.13457	0.30338
2289.20601	0.30581
2287.27744	0.30820
2285.34888	0.31059
2283.42031	0.31283
2281.49175	0.31466
2279.56318	0.31628
2277.63462	0.31808
2275.70605	0.32011
2273.77749	0.32216
2271.84893	0.32423
2269.92036	0.32638
2267.99180	0.32849
2266.06323	0.33055
2264.13467	0.33262
2262.20610	0.33474
2260.27754	0.33687
2258.34897	0.33906
2256.42041	0.34139
2254.49185	0.34376
2252.56328	0.34603
2250.63472	0.34819
2248.70615	0.35037
2246.77759	0.35258
2244.84902	0.35479
2242.92046	0.35700
2240.99189	0.35924
2239.06333	0.36150
2237.13477	0.36371
2235.20620	0.36594
2233.27764	0.36827
2231.34907	0.37057
2229.42051	0.37283
2227.49194	0.37511
2225.56338	0.37726
2223.63481	0.37928
2221.70625	0.38140
2219.77769	0.38365
2217.84912	0.38580
2215.92056	0.38796
2213.99199	0.39021
2212.06343	0.39235
2210.13486	0.39434
2208.20630	0.39636
2206.27773	0.39846
2204.34917	0.40061
2202.42061	0.40272
2200.49204	0.40475
2198.56348	0.40673
2196.63491	0.40870
2194.70635	0.41064
2192.77778	0.41256
2190.84922	0.41451
2188.92065	0.41643
2186.99209	0.41820
2185.06353	0.41991
2183.13496	0.42164
2181.20640	0.42335
2179.27783	0.42501
2177.34927	0.42660
2175.42070	0.42823
2173.49214	0.42988
2171.56357	0.43146
2169.63501	0.43291
2167.70645	0.43424
2165.77788	0.43555
2163.84932	0.43681
2161.92075	0.43788
2159.99219	0.43890
2158.06362	0.43997
2156.13506	0.44092
2154.20649	0.44171
2152.27793	0.44250
2150.34937	0.44333
2148.42080	0.44407
2146.49224	0.44463
2144.56367	0.44516
2142.63511	0.44582
2140.70654	0.44648
2138.77798	0.44684
2136.84941	0.44692
2134.92085	0.44701
2132.99229	0.44721
2131.06372	0.44733
2129.13516	0.44717
2127.20659	0.44688
2125.27803	0.44668
2123.34946	0.44660
2121.42090	0.44641
2119.49233	0.44593
2117.56377	0.44530
2115.63521	0.44461
2113.70664	0.44383
2111.77808	0.44296
2109.84951	0.44210
2107.92095	0.44127
2105.99238	0.44031
2104.06382	0.43922
2102.13525	0.43801
2100.20669	0.43674
2098.27812	0.43548
2096.34956	0.43415
2094.42100	0.43269
2092.49243	0.43123
2090.56387	0.42971
2088.63530	0.42802
2086.70674	0.42628
2084.77817	0.42458
2082.84961	0.42285
2080.92104	0.42092
2078.99248	0.41892
2077.06392	0.41700
2075.13535	0.41511
2073.20679	0.41312
2071.27822	0.41094
2069.34966	0.40875
2067.42109	0.40672
2065.49253	0.40463
2063.56396	0.40228
2061.63540	0.39987
2059.70684	0.39745
2057.77827	0.39493
2055.84971	0.39241
2053.92114	0.38992
2051.99258	0.38750
2050.06401	0.38513
2048.13545	0.38264
2046.20688	0.37999
2044.27832	0.37734
2042.34976	0.37468
2040.42119	0.37204
2038.49263	0.36948
2036.56406	0.36687
2034.63550	0.36421
2032.70693	0.36157
2030.77837	0.35896
2028.84980	0.35627
2026.92124	0.35351
2024.99268	0.35077
2023.06411	0.34804
2021.13555	0.34530
2019.20698	0.34262
2017.27842	0.33998
2015.34985	0.33723
2013.42129	0.33444
2011.49272	0.33167
2009.56416	0.32898
2007.63560	0.32634
2005.70703	0.32372
2003.77847	0.32117
2001.84990	0.31861
1999.92134	0.31593
1997.99277	0.31332
1996.06421	0.31089
1994.13564	0.30843
1992.20708	0.30586
1990.27852	0.30329
1988.34995	0.30083
1986.42139	0.29845
1984.49282	0.29611
1982.56426	0.29379
1980.63569	0.29144
1978.70713	0.28909
1976.77856	0.28684
1974.85000	0.28469
1972.92144	0.28259
1970.99287	0.28057
1969.06431	0.27861
1967.13574	0.27658
1965.20718	0.27443
1963.27861	0.27234
1961.35005	0.27039
1959.42148	0.26855
1957.49292	0.26672
1955.56436	0.26488
1953.63579	0.26313
1951.70723	0.26141
1949.77866	0.25974
1947.85010	0.25811
1945.92153	0.25656
1943.99297	0.25505
1942.06440	0.25351
1940.13584	0.25204
1938.20728	0.25067
1936.27871	0.24938
1934.35015	0.24815
1932.42158	0.24692
1930.49302	0.24567
1928.56445	0.24446
1926.63589	0.24333
1924.70732	0.24231
1922.77876	0.24132
1920.85020	0.24031
1918.92163	0.23939
1916.99307	0.23847
1915.06450	0.23747
1913.13594	0.23658
1911.20737	0.23590
1909.27881	0.23519
1907.35024	0.23448
1905.42168	0.23386
1903.49312	0.23327
1901.56455	0.23271
1899.63599	0.23224
1897.70742	0.23179
1895.77886	0.23127
1893.85029	0.23077
1891.92173	0.23039
1889.99316	0.23013
1888.06460	0.22985
1886.13604	0.22960
1884.20747	0.22946
1882.27891	0.22928
1880.35034	0.22905
1878.42178	0.22885
1876.49321	0.22882
1874.56465	0.22884
1872.63608	0.22882
1870.70752	0.22878
1868.77896	0.22900
1866.85039	0.22943
1864.92183	0.22973
1862.99326	0.22995
1861.06470	0.23024
1859.13613	0.23059
1857.20757	0.23088
1855.27900	0.23125
1853.35044	0.23166
1851.42187	0.23209
1849.49331	0.23257
1847.56475	0.23319
1845.63618	0.23404
1843.70762	0.23505
1841.77905	0.23585
1839.85049	0.23630
1837.92192	0.23701
1835.99336	0.23793
1834.06479	0.23888
1832.13623	0.23979
1830.20767	0.24092
1828.27910	0.24224
1826.35054	0.24344
1824.42197	0.24481
1822.49341	0.24617
1820.56484	0.24743
1818.63628	0.24877
1816.70771	0.25034
1814.77915	0.25188
1812.85059	0.25347
1810.92202	0.25537
1808.99346	0.25744
1807.06489	0.25945
1805.13633	0.26137
1803.20776	0.26347
1801.27920	0.26581
1799.35063	0.26858
1797.42207	0.27116
1795.49351	0.27350
1793.56494	0.27612
1791.63638	0.27967
1789.70781	0.28338
1787.77925	0.28618
1785.85068	0.28920
1783.92212	0.29274
1781.99355	0.29662
1780.06499	0.30077
1778.13643	0.30507
1776.20786	0.30901
1774.27930	0.31303
1772.35073	0.31858
1770.42217	0.32507
1768.49360	0.33072
1766.56504	0.33602
1764.63647	0.34128
1762.70791	0.34687
1760.77935	0.35405
1758.85078	0.36111
1756.92222	0.36838
1754.99365	0.37632
1753.06509	0.38330
1751.13652	0.39134
1749.20796	0.40168
1747.27939	0.41211
1745.35083	0.42122
1743.42227	0.43078
1741.49370	0.44130
1739.56514	0.45381
1737.63657	0.46638
1735.70801	0.47713
1733.77944	0.49316
1731.85088	0.51289
1729.92231	0.52874
1727.99375	0.54464
1726.06519	0.56143
1724.13662	0.57951
1722.20806	0.59910
1720.27949	0.61721
1718.35093	0.63804
1716.42236	0.66906
1714.49380	0.69950
1712.56523	0.72445
1710.63667	0.74829
1708.70811	0.77340
1706.77954	0.80142
1704.85098	0.83496
1702.92241	0.86516
1700.99385	0.89462
1699.06528	0.93852
1697.13672	0.97929
1695.20815	1.02115
1693.27959	1.06156
1691.35103	1.09345
1689.42246	1.12969
1687.49390	1.16763
1685.56533	1.20354
1683.63677	1.25894
1681.70820	1.31768
1679.77964	1.35580
1677.85107	1.39154
1675.92251	1.43204
1673.99395	1.48191
1672.06538	1.52609
1670.13682	1.56888
1668.20825	1.62361
1666.27969	1.66718
1664.35112	1.70323
1662.42256	1.74772
1660.49399	1.79763
1658.56543	1.83666
1656.63687	1.86806
1654.70830	1.89743
1652.77974	1.94968
1650.85117	2.00356
1648.92261	2.02548
1646.99404	2.05431
1645.06548	2.08854
1643.13691	2.11184
1641.20835	2.12780
1639.27979	2.14186
1637.35122	2.15111
1635.42266	2.15608
1633.49409	2.15537
1631.56553	2.14663
1629.63696	2.13345
1627.70840	2.11014
1625.77983	2.08249
1623.85127	2.04716
1621.92271	2.00326
1619.99414	1.96431
1618.06558	1.92505
1616.13701	1.86740
1614.20845	1.80911
1612.27988	1.76516
1610.35132	1.71860
1608.42275	1.66749
1606.49419	1.61673
1604.56562	1.56949
1602.63706	1.52329
1600.70850	1.47712
1598.77993	1.43386
1596.85137	1.39322
1594.92280	1.35383
1592.99424	1.31545
1591.06567	1.27996
1589.13711	1.24627
1587.20854	1.21423
1585.27998	1.18412
1583.35142	1.15540
1581.42285	1.12815
1579.49429	1.10397
1577.56572	1.08166
1575.63716	1.05419
1573.70859	1.02972
1571.78003	1.01305
1569.85146	0.99444
1567.92290	0.97313
1565.99434	0.95601
1564.06577	0.94102
1562.13721	0.92835
1560.20864	0.91699
1558.28008	0.89616
1556.35151	0.87776
1554.42295	0.86717
1552.49438	0.85660
1550.56582	0.84607
1548.63726	0.83544
1546.70869	0.82602
1544.78013	0.81713
1542.85156	0.80767
1540.92300	0.79722
1538.99443	0.78493
1537.06587	0.77679
1535.13730	0.77129
1533.20874	0.76419
1531.28018	0.75641
1529.35161	0.75056
1527.42305	0.74493
1525.49448	0.73873
1523.56592	0.73279
1521.63735	0.72672
1519.70879	0.72053
1517.78022	0.71521
1515.85166	0.70958
1513.92310	0.70439
1511.99453	0.70040
1510.06597	0.69677
1508.13740	0.69300
1506.20884	0.68764
1504.28027	0.68321
1502.35171	0.68036
1500.42314	0.67752
1498.49458	0.67441
1496.56602	0.67109
1494.63745	0.66810
1492.70889	0.66562
1490.78032	0.66324
1488.85176	0.66049
1486.92319	0.65782
1484.99463	0.65549
1483.06606	0.65330
1481.13750	0.65098
1479.20894	0.64865
1477.28037	0.64655
1475.35181	0.64448
1473.42324	0.64228
1471.49468	0.63965
1469.56611	0.63702
1467.63755	0.63450
1465.70898	0.63191
1463.78042	0.62955
1461.85186	0.62757
1459.92329	0.62565
1457.99473	0.62315
1456.06616	0.61994
1454.13760	0.61743
1452.20903	0.61538
1450.28047	0.61313
1448.35190	0.61077
1446.42334	0.60865
1444.49478	0.60692
1442.56621	0.60524
1440.63765	0.60346
1438.70908	0.60183
1436.78052	0.60032
1434.85195	0.59882
1432.92339	0.59734
1430.99482	0.59570
1429.06626	0.59396
1427.13770	0.59253
1425.20913	0.59134
1423.28057	0.59009
1421.35200	0.58885
1419.42344	0.58750
1417.49487	0.58583
1415.56631	0.58415
1413.63774	0.58265
1411.70918	0.58121
1409.78062	0.57978
1407.85205	0.57832
1405.92349	0.57678
1403.99492	0.57514
1402.06636	0.57357
1400.13779	0.57217
1398.20923	0.57075
1396.28066	0.56941
1394.35210	0.56824
1392.42354	0.56713
1390.49497	0.56592
1388.56641	0.56460
1386.63784	0.56326
1384.70928	0.56202
1382.78071	0.56083
1380.85215	0.55976
1378.92358	0.55891
1376.99502	0.55816
1375.06646	0.55745
1373.13789	0.55671
1371.20933	0.55578
1369.28076	0.55486
1367.35220	0.55401
1365.42363	0.55313
1363.49507	0.55226
1361.56650	0.55141
1359.63794	0.55048
1357.70937	0.54954
1355.78081	0.54867
1353.85225	0.54786
1351.92368	0.54709
1349.99512	0.54638
1348.06655	0.54563
1346.13799	0.54467
1344.20942	0.54358
1342.28086	0.54259
1340.35229	0.54179
1338.42373	0.54099
1336.49517	0.53997
1334.56660	0.53888
1332.63804	0.53802
1330.70947	0.53738
1328.78091	0.53671
1326.85234	0.53597
1324.92378	0.53521
1322.99521	0.53449
1321.06665	0.53385
1319.13809	0.53326
1317.20952	0.53257
1315.28096	0.53178
1313.35239	0.53109
1311.42383	0.53044
1309.49526	0.52963
1307.56670	0.52866
1305.63813	0.52775
1303.70957	0.52696
1301.78101	0.52622
1299.85244	0.52551
1297.92388	0.52483
1295.99531	0.52407
1294.06675	0.52321
1292.13818	0.52246
1290.20962	0.52189
1288.28105	0.52143
1286.35249	0.52094
1284.42393	0.52037
1282.49536	0.51983
1280.56680	0.51954
1278.63823	0.51933
1276.70967	0.51891
1274.78110	0.51834
1272.85254	0.51795
1270.92397	0.51771
1268.99541	0.51733
1267.06685	0.51677
1265.13828	0.51620
1263.20972	0.51575
1261.28115	0.51541
1259.35259	0.51511
1257.42402	0.51484
1255.49546	0.51455
1253.56689	0.51427
1251.63833	0.51408
1249.70977	0.51387
1247.78120	0.51349
1245.85264	0.51310
1243.92407	0.51279
1241.99551	0.51237
1240.06694	0.51182
1238.13838	0.51131
1236.20981	0.51086
1234.28125	0.51039
1232.35269	0.50985
1230.42412	0.50919
1228.49556	0.50848
1226.56699	0.50785
1224.63843	0.50728
1222.70986	0.50674
1220.78130	0.50620
1218.85273	0.50566
1216.92417	0.50509
1214.99561	0.50459
1213.06704	0.50415
1211.13848	0.50368
1209.20991	0.50309
1207.28135	0.50246
1205.35278	0.50192
1203.42422	0.50139
1201.49565	0.50082
1199.56709	0.50037
1197.63853	0.50002
1195.70996	0.49959
1193.78140	0.49916
1191.85283	0.49879
1189.92427	0.49840
1187.99570	0.49798
1186.06714	0.49762
1184.13857	0.49750
1182.21001	0.49762
1180.28145	0.49773
1178.35288	0.49791
1176.42432	0.49846
1174.49575	0.49922
1172.56719	0.49981
1170.63862	0.50028
1168.71006	0.50081
1166.78149	0.50129
1164.85293	0.50157
1162.92437	0.50174
1160.99580	0.50185
1159.06724	0.50175
1157.13867	0.50140
1155.21011	0.50068
1153.28154	0.49946
1151.35298	0.49789
1149.42441	0.49609
1147.49585	0.49410
1145.56729	0.49197
1143.63872	0.48983
1141.71016	0.48764
1139.78159	0.48528
1137.85303	0.48295
1135.92446	0.48087
1133.99590	0.47909
1132.06733	0.47759
1130.13877	0.47639
1128.21021	0.47536
1126.28164	0.47427
1124.35308	0.47309
1122.42451	0.47197
1120.49595	0.47112
1118.56738	0.47046
1116.63882	0.47007
1114.71025	0.47014
1112.78169	0.47054
1110.85312	0.47103
1108.92456	0.47155
1106.99600	0.47223
1105.06743	0.47315
1103.13887	0.47433
1101.21030	0.47613
1099.28174	0.47846
1097.35317	0.48091
1095.42461	0.48367
1093.49604	0.48711
1091.56748	0.49147
1089.63892	0.49670
1087.71035	0.50248
1085.78179	0.50880
1083.85322	0.51555
1081.92466	0.52201
1079.99609	0.52744
1078.06753	0.53103
1076.13896	0.53202
1074.21040	0.53020
1072.28184	0.52592
1070.35327	0.51995
1068.42471	0.51326
1066.49614	0.50679
1064.56758	0.50085
1062.63901	0.49543
1060.71045	0.49060
1058.78188	0.48635
1056.85332	0.48259
1054.92476	0.47925
1052.99619	0.47640
1051.06763	0.47414
1049.13906	0.47246
1047.21050	0.47117
1045.28193	0.47020
1043.35337	0.46961
1041.42480	0.46925
1039.49624	0.46885
1037.56768	0.46851
1035.63911	0.46842
1033.71055	0.46836
1031.78198	0.46809
1029.85342	0.46784
1027.92485	0.46775
1025.99629	0.46759
1024.06772	0.46751
1022.13916	0.46778
1020.21060	0.46842
1018.28203	0.46936
1016.35347	0.47030
1014.42490	0.47111
1012.49634	0.47210
1010.56777	0.47338
1008.63921	0.47469
1006.71064	0.47606
1004.78208	0.47775
1002.85352	0.47989
1000.92495	0.48243
998.99639	0.48533
997.06782	0.48878
995.13926	0.49270
993.21069	0.49650
991.28213	0.49961
989.35356	0.50194
987.42500	0.50356
985.49644	0.50461
983.56787	0.50540
981.63931	0.50629
979.71074	0.50754
977.78218	0.50929
975.85361	0.51169
973.92505	0.51456
971.99648	0.51764
970.06792	0.52104
968.13936	0.52480
966.21079	0.52871
964.28223	0.53298
962.35366	0.53787
960.42510	0.54308
958.49653	0.54833
956.56797	0.55364
954.63940	0.55925
952.71084	0.56558
950.78228	0.57226
948.85371	0.57855
946.92515	0.58475
944.99658	0.59114
943.06802	0.59711
941.13945	0.60274
939.21089	0.60850
937.28232	0.61425
935.35376	0.61988
933.42520	0.62528
931.49663	0.63024
929.56807	0.63515
927.63950	0.64073
925.71094	0.64697
923.78237	0.65362
921.85381	0.66034
919.92524	0.66680
917.99668	0.67334
916.06812	0.68004
914.13955	0.68709
912.21099	0.69526
910.28242	0.70373
908.35386	0.71113
906.42529	0.71867
904.49673	0.72749
902.56816	0.73648
900.63960	0.74504
898.71104	0.75405
896.78247	0.76413
894.85391	0.77410
892.92534	0.78280
890.99678	0.79175
889.06821	0.80268
887.13965	0.81459
885.21108	0.82618
883.28252	0.83739
881.35396	0.84805
879.42539	0.85836
877.49683	0.86898
875.56826	0.88107
873.63970	0.89345
871.71113	0.90469
869.78257	0.91596
867.85400	0.92713
865.92544	0.93789
863.99687	0.94777
862.06831	0.95673
860.13975	0.96639
858.21118	0.97796
856.28262	0.99119
854.35405	1.00481
852.42549	1.01731
850.49692	1.02666
848.56836	1.03381
846.63979	1.04347
844.71123	1.05696
842.78267	1.07042
840.85410	1.08120
838.92554	1.09156
836.99697	1.10398
835.06841	1.11626
833.13984	1.12646
831.21128	1.13606
829.28271	1.14688
827.35415	1.15971
825.42559	1.17138
823.49702	1.18056
821.56846	1.19263
819.63989	1.20967
817.71133	1.22074
815.78276	1.22490
813.85420	1.23777
811.92563	1.25603
809.99707	1.26886
808.06851	1.27591
806.13994	1.28243
804.21138	1.29692
802.28281	1.32276
800.35425	1.36739
798.42568	1.42048
796.49712	1.42689
794.56855	1.37841
792.63999	1.32961
790.71143	1.30529
788.78286	1.29704
786.85430	1.29295
784.92573	1.31593
782.99717	1.36050
781.06860	1.35722
779.14004	1.33819
777.21147	1.35478
775.28291	1.35126
773.35435	1.34456
771.42578	1.42301
769.49722	1.48537
767.56865	1.44072
765.64009	1.41723
763.71152	1.35776
761.78296	1.27067
759.85439	1.24942
757.92583	1.26661
755.99727	1.24428
754.06870	1.16059
752.14014	1.09234
750.21157	1.06890
748.28301	1.03593
746.35444	0.96192
744.42588	0.90983
742.49731	0.92645
740.56875	0.94405
738.64019	0.92324
736.71162	0.96173
734.78306	0.96194
732.85449	0.76530
730.92593	0.56233
728.99736	0.39897
727.06880	0.22426
725.14023	0.05770
723.21167	-0.05496
721.28311	-0.12640
719.35454	-0.17029
717.42598	-0.17062
715.49741	-0.13780
713.56885	-0.08763
711.64028	-0.05472
709.71172	-0.02564
707.78315	0.03756
705.85459	0.09373
703.92603	0.08836
701.99746	0.09340
700.06890	0.10577
698.14033	0.07522
696.21177	0.05113
694.28320	0.07325
692.35464	0.14729
690.42607	0.26091
688.49751	0.34221
686.56895	0.33506
684.64038	0.21981
682.71182	0.10003
680.78325	0.04670
678.85469	0.07364
676.92612	0.16521
674.99756	0.25138
673.06899	0.26845
671.14043	0.21992
669.21187	0.18545
667.28330	0.19598
665.35474	0.21026
663.42617	0.18684
661.49761	0.18033
659.56904	0.27195
657.64048	0.42642
655.71191	0.43679
653.78335	0.32941
651.85479	0.28668
649.92622	0.28709
647.99766	0.21406
646.06909	0.11783
644.14053	0.06256
642.21196	0.02929
640.28340	0.04482
638.35483	0.10042
636.42627	0.12789
634.49771	0.10890
632.56914	0.10607
630.64058	0.17524
628.71201	0.29437
626.78345	0.32616
624.85488	0.26015
622.92632	0.22764
620.99775	0.25723
619.06919	0.33495
617.14062	0.28687
615.21206	0.14605
613.28350	0.07468
611.35493	0.12827
609.42637	0.28880
607.49780	0.35366
605.56924	0.22894
603.64067	0.12874
601.71211	0.09058
599.78354	0.12040
597.85498	0.17496
595.92642	0.19974
593.99785	0.23085
592.06929	0.25987
590.14072	0.23663
588.21216	0.18189
586.28359	0.11489
584.35503	0.07574
582.42646	0.10969
580.49790	0.16894
578.56934	0.18726
576.64077	0.16880
574.71221	0.17186
572.78364	0.21743
570.85508	0.27328
568.92651	0.27190
566.99795	0.19984
565.06938	0.14266
563.14082	0.15607
561.21226	0.21314
559.28369	0.29598
557.35513	0.36165
555.42656	0.32222
553.49800	0.25508
551.56943	0.21565
549.64087	0.17381
547.71230	0.14016
545.78374	0.14678
543.85518	0.16952
541.92661	0.14505
539.99805	0.10576
538.06948	0.10168
536.14092	0.12867
534.21235	0.20756
532.28379	0.25771
530.35522	0.19208
528.42666	0.11029
526.49810	0.08388
524.56953	0.12442
522.64097	0.17584
520.71240	0.18841
518.78384	0.19782
516.85527	0.21145
514.92671	0.16875
512.99814	0.12706
511.06958	0.14554
509.14102	0.17441
507.21245	0.16595
505.28389	0.16009
503.35532	0.20746
501.42676	0.24719
499.49819	0.22192
