3997.91411	0.06685
3995.98555	0.06668
3994.05698	0.06702
3992.12842	0.06755
3990.19985	0.06816
3988.27129	0.06887
3986.34272	0.06921
3984.41416	0.06914
3982.48560	0.06921
3980.55703	0.06948
3978.62847	0.06966
3976.69990	0.06990
3974.77134	0.07038
3972.84277	0.07089
3970.91421	0.07119
3968.98564	0.07124
3967.05708	0.07114
3965.12852	0.07102
3963.19995	0.07107
3961.27139	0.07134
3959.34282	0.07163
3957.41426	0.07163
3955.48569	0.07134
3953.55713	0.07096
3951.62856	0.07081
3949.70000	0.07128
3947.77144	0.07199
3945.84287	0.07213
3943.91431	0.07204
3941.98574	0.07226
3940.05718	0.07238
3938.12861	0.07231
3936.20005	0.07223
3934.27148	0.07237
3932.34292	0.07316
3930.41436	0.07406
3928.48579	0.07403
3926.55723	0.07333
3924.62866	0.07269
3922.70010	0.07221
3920.77153	0.07181
3918.84297	0.07160
3916.91440	0.07177
3914.98584	0.07210
3913.05728	0.07221
3911.12871	0.07206
3909.20015	0.07172
3907.27158	0.07167
3905.34302	0.07206
3903.41445	0.07241
3901.48589	0.07266
3899.55732	0.07299
3897.62876	0.07286
3895.70020	0.07226
3893.77163	0.07199
3891.84307	0.07249
3889.91450	0.07282
3887.98594	0.07232
3886.05737	0.07240
3884.12881	0.07328
3882.20024	0.07354
3880.27168	0.07351
3878.34312	0.07337
3876.41455	0.07263
3874.48599	0.07245
3872.55742	0.07340
3870.62886	0.07483
3868.70029	0.07605
3866.77173	0.07588
3864.84316	0.07520
3862.91460	0.07518
3860.98604	0.07534
3859.05747	0.07554
3857.12891	0.07597
3855.20034	0.07673
3853.27178	0.07843
3851.34321	0.07993
3849.41465	0.07926
3847.48608	0.07826
3845.55752	0.07813
3843.62896	0.07907
3841.70039	0.08048
3839.77183	0.08189
3837.84326	0.08364
3835.91470	0.08485
3833.98613	0.08466
3832.05757	0.08412
3830.12900	0.08398
3828.20044	0.08417
3826.27187	0.08489
3824.34331	0.08613
3822.41475	0.08767
3820.48618	0.08982
3818.55762	0.09085
3816.62905	0.09064
3814.70049	0.09098
3812.77192	0.09127
3810.84336	0.09133
3808.91479	0.09189
3806.98623	0.09321
3805.05767	0.09494
3803.12910	0.09661
3801.20054	0.09854
3799.27197	0.09996
3797.34341	0.10051
3795.41484	0.10119
3793.48628	0.10169
3791.55771	0.10196
3789.62915	0.10243
3787.70059	0.10333
3785.77202	0.10516
3783.84346	0.10773
3781.91489	0.10980
3779.98633	0.11142
3778.05776	0.11315
3776.12920	0.11434
3774.20063	0.11514
3772.27207	0.11641
3770.34351	0.11882
3768.41494	0.12184
3766.48638	0.12383
3764.55781	0.12528
3762.62925	0.12692
3760.70068	0.12889
3758.77212	0.13167
3756.84355	0.13456
3754.91499	0.13688
3752.98643	0.13951
3751.05786	0.14320
3749.12930	0.14695
3747.20073	0.14882
3745.27217	0.15044
3743.34360	0.15408
3741.41504	0.15770
3739.48647	0.15978
3737.55791	0.16226
3735.62935	0.16663
3733.70078	0.17216
3731.77222	0.17585
3729.84365	0.17811
3727.91509	0.18104
3725.98652	0.18605
3724.05796	0.19314
3722.12939	0.20108
3720.20083	0.20938
3718.27227	0.21764
3716.34370	0.22578
3714.41514	0.23389
3712.48657	0.24324
3710.55801	0.25574
3708.62944	0.26881
3706.70088	0.27967
3704.77231	0.29037
3702.84375	0.30336
3700.91519	0.32069
3698.98662	0.33966
3697.05806	0.35740
3695.12949	0.37622
3693.20093	0.39627
3691.27236	0.41790
3689.34380	0.44609
3687.41523	0.48136
3685.48667	0.51251
3683.55811	0.53921
3681.62954	0.56772
3679.70098	0.59976
3677.77241	0.63315
3675.84385	0.67247
3673.91528	0.72616
3671.98672	0.76995
3670.05815	0.80802
3668.12959	0.86071
3666.20103	0.90938
3664.27246	0.95033
3662.34390	0.99433
3660.41533	1.04149
3658.48677	1.08748
3656.55820	1.13641
3654.62964	1.19125
3652.70107	1.23718
3650.77251	1.27738
3648.84395	1.33354
3646.91538	1.40251
3644.98682	1.45325
3643.05825	1.49247
3641.12969	1.53233
3639.20112	1.57576
3637.27256	1.61937
3635.34399	1.66208
3633.41543	1.70486
3631.48687	1.74475
3629.55830	1.78506
3627.62974	1.83866
3625.70117	1.88984
3623.77261	1.92457
3621.84404	1.95769
3619.91548	1.99588
3617.98691	2.04204
3616.05835	2.08630
3614.12979	2.12375
3612.20122	2.16417
3610.27266	2.20397
3608.34409	2.24112
3606.41553	2.28038
3604.48696	2.31891
3602.55840	2.35440
3600.62983	2.39196
3598.70127	2.43143
3596.77271	2.47049
3594.84414	2.51256
3592.91558	2.55686
3590.98701	2.59750
3589.05845	2.63437
3587.12988	2.67776
3585.20132	2.72590
3583.27275	2.76668
3581.34419	2.80365
3579.41562	2.84240
3577.48706	2.88341
3575.55850	2.92631
3573.62993	2.97119
3571.70137	3.01326
3569.77280	3.05182
3567.84424	3.09466
3565.91567	3.14975
3563.98711	3.20220
3562.05854	3.24181
3560.12998	3.28060
3558.20142	3.32439
3556.27285	3.37035
3554.34429	3.41434
3552.41572	3.45884
3550.48716	3.50577
3548.55859	3.55181
3546.63003	3.59552
3544.70146	3.64039
3542.77290	3.68743
3540.84434	3.73563
3538.91577	3.78354
3536.98721	3.82990
3535.05864	3.87915
3533.13008	3.92975
3531.20151	3.97831
3529.27295	4.02614
3527.34438	4.07419
3525.41582	4.12031
3523.48726	4.16334
3521.55869	4.20758
3519.63013	4.25335
3517.70156	4.29852
3515.77300	4.34464
3513.84443	4.39244
3511.91587	4.44006
3509.98730	4.48936
3508.05874	4.54027
3506.13018	4.58894
3504.20161	4.63683
3502.27305	4.68701
3500.34448	4.73727
3498.41592	4.78400
3496.48735	4.83240
3494.55879	4.88600
3492.63022	4.93676
3490.70166	4.98376
3488.77310	5.03429
3486.84453	5.08240
3484.91597	5.12459
3482.98740	5.17293
3481.05884	5.22502
3479.13027	5.26316
3477.20171	5.29566
3475.27314	5.34447
3473.34458	5.40490
3471.41602	5.45841
3469.48745	5.50267
3467.55889	5.54591
3465.63032	5.59473
3463.70176	5.65023
3461.77319	5.70076
3459.84463	5.74504
3457.91606	5.79141
3455.98750	5.83569
3454.05894	5.87501
3452.13037	5.92084
3450.20181	5.97700
3448.27324	6.02968
3446.34468	6.07853
3444.41611	6.13153
3442.48755	6.19248
3440.55898	6.25059
3438.63042	6.29612
3436.70186	6.33479
3434.77329	6.37157
3432.84473	6.41730
3430.91616	6.47155
3428.98760	6.52359
3427.05903	6.57648
3425.13047	6.64674
3423.20190	6.71760
3421.27334	6.75684
3419.34478	6.77809
3417.41621	6.80832
3415.48765	6.83785
3413.55908	6.86178
3411.63052	6.90668
3409.70195	6.96872
3407.77339	7.02936
3405.84482	7.08775
3403.91626	7.14621
3401.98770	7.18760
3400.05913	7.21640
3398.13057	7.25553
3396.20200	7.30353
3394.27344	7.34264
3392.34487	7.33905
3390.41631	7.35426
3388.48774	7.44081
3386.55918	7.51792
3384.63062	7.53273
3382.70205	7.54306
3380.77349	7.58026
3378.84492	7.60651
3376.91636	7.60559
3374.98779	7.61860
3373.05923	7.67784
3371.13066	7.74301
3369.20210	7.77703
3367.27354	7.77760
3365.34497	7.77569
3363.41641	7.78833
3361.48784	7.81034
3359.55928	7.83047
3357.63071	7.82472
3355.70215	7.81125
3353.77358	7.80335
3351.84502	7.83105
3349.91646	7.90008
3347.98789	7.98294
3346.05933	8.01802
3344.13076	7.97715
3342.20220	7.93735
3340.27363	7.91015
3338.34507	7.87614
3336.41650	7.86969
3334.48794	7.93884
3332.55937	8.00890
3330.63081	7.99696
3328.70225	7.98123
3326.77368	8.01199
3324.84512	8.06291
3322.91655	8.12067
3320.98799	8.14556
3319.05942	8.12379
3317.13086	8.15852
3315.20229	8.24723
3313.27373	8.31537
3311.34517	8.31829
3309.41660	8.24526
3307.48804	8.15992
3305.55947	8.10025
3303.63091	8.10226
3301.70234	8.12676
3299.77378	8.09752
3297.84521	8.05308
3295.91665	8.03736
3293.98809	8.01337
3292.05952	7.98305
3290.13096	7.97216
3288.20239	7.97796
3286.27383	8.04259
3284.34526	8.19028
3282.41670	8.30027
3280.48813	8.26730
3278.55957	8.22406
3276.63101	8.20376
3274.70244	8.18130
3272.77388	8.22189
3270.84531	8.23395
3268.91675	8.13221
3266.98818	8.05027
3265.05962	8.05449
3263.13105	8.07830
3261.20249	8.11411
3259.27393	8.16168
3257.34536	8.18464
3255.41680	8.16788
3253.48823	8.13899
3251.55967	8.13299
3249.63110	8.11574
3247.70254	8.09507
3245.77397	8.12887
3243.84541	8.19703
3241.91685	8.17133
3239.98828	8.08276
3238.05972	8.11119
3236.13115	8.21758
3234.20259	8.24208
3232.27402	8.21557
3230.34546	8.17834
3228.41689	8.10714
3226.48833	8.07840
3224.55977	8.06979
3222.63120	7.93598
3220.70264	7.76758
3218.77407	7.74040
3216.84551	7.83271
3214.91694	7.89780
3212.98838	7.86750
3211.05981	7.82990
3209.13125	7.82584
3207.20269	7.80691
3205.27412	7.76361
3203.34556	7.68759
3201.41699	7.62068
3199.48843	7.65436
3197.55986	7.73072
3195.63130	7.68367
3193.70273	7.57221
3191.77417	7.52864
3189.84561	7.51397
3187.91704	7.47235
3185.98848	7.41905
3184.05991	7.36052
3182.13135	7.29389
3180.20278	7.23089
3178.27422	7.18196
3176.34565	7.15580
3174.41709	7.11913
3172.48853	7.02531
3170.55996	6.90873
3168.63140	6.83835
3166.70283	6.82480
3164.77427	6.81939
3162.84570	6.78426
3160.91714	6.71467
3158.98857	6.61836
3157.06001	6.52305
3155.13145	6.45311
3153.20288	6.39251
3151.27432	6.31874
3149.34575	6.24035
3147.41719	6.17223
3145.48862	6.10130
3143.56006	6.02413
3141.63149	5.96385
3139.70293	5.89972
3137.77437	5.81707
3135.84580	5.74275
3133.91724	5.67147
3131.98867	5.59694
3130.06011	5.53375
3128.13154	5.46923
3126.20298	5.39522
3124.27441	5.33002
3122.34585	5.26844
3120.41729	5.19609
3118.48872	5.12036
3116.56016	5.05210
3114.63159	4.99015
3112.70303	4.92421
3110.77446	4.85227
3108.84590	4.77953
3106.91733	4.70894
3104.98877	4.64199
3103.06021	4.57618
3101.13164	4.50761
3099.20308	4.43883
3097.27451	4.37451
3095.34595	4.31218
3093.41738	4.24716
3091.48882	4.18233
3089.56025	4.12081
3087.63169	4.05884
3085.70312	3.99507
3083.77456	3.93085
3081.84600	3.86774
3079.91743	3.80840
3077.98887	3.75167
3076.06030	3.69318
3074.13174	3.63265
3072.20317	3.57542
3070.27461	3.52241
3068.34604	3.46795
3066.41748	3.41080
3064.48892	3.35406
3062.56035	3.29878
3060.63179	3.24495
3058.70322	3.19238
3056.77466	3.14034
3054.84609	3.08865
3052.91753	3.03739
3050.98896	2.98624
3049.06040	2.93512
3047.13184	2.88538
3045.20327	2.83769
3043.27471	2.79057
3041.34614	2.74299
3039.41758	2.69554
3037.48901	2.64929
3035.56045	2.60471
3033.63188	2.56125
3031.70332	2.51799
3029.77476	2.47492
3027.84619	2.43277
3025.91763	2.39107
3023.98906	2.34917
3022.06050	2.30772
3020.13193	2.26685
3018.20337	2.22641
3016.27480	2.18707
3014.34624	2.14892
3012.41768	2.11145
3010.48911	2.07477
3008.56055	2.03853
3006.63198	2.00199
3004.70342	1.96593
3002.77485	1.93131
3000.84629	1.89768
2998.91772	1.86446
2996.98916	1.83203
2995.06060	1.80067
2993.13203	1.76959
2991.20347	1.73863
2989.27490	1.70865
2987.34634	1.67963
2985.41777	1.65116
2983.48921	1.62305
2981.56064	1.59529
2979.63208	1.56846
2977.70352	1.54254
2975.77495	1.51676
2973.84639	1.49095
2971.91782	1.46547
2969.98926	1.44061
2968.06069	1.41635
2966.13213	1.39231
2964.20356	1.36843
2962.27500	1.34511
2960.34644	1.32206
2958.41787	1.29893
2956.48931	1.27578
2954.56074	1.25239
2952.63218	1.22901
2950.70361	1.20639
2948.77505	1.18467
2946.84648	1.16368
2944.91792	1.14322
2942.98936	1.12296
2941.06079	1.10308
2939.13223	1.08365
2937.20366	1.06403
2935.27510	1.04404
2933.34653	1.02466
2931.41797	1.00640
2929.48940	0.98842
2927.56084	0.97018
2925.63228	0.95202
2923.70371	0.93421
2921.77515	0.91672
2919.84658	0.89981
2917.91802	0.88375
2915.98945	0.86816
2914.06089	0.85267
2912.13232	0.83717
2910.20376	0.82165
2908.27520	0.80652
2906.34663	0.79249
2904.41807	0.77909
2902.48950	0.76558
2900.56094	0.75221
2898.63237	0.73901
2896.70381	0.72610
2894.77524	0.71383
2892.84668	0.70207
2890.91812	0.69064
2888.98955	0.67941
2887.06099	0.66824
2885.13242	0.65739
2883.20386	0.64710
2881.27529	0.63720
2879.34673	0.62749
2877.41816	0.61790
2875.48960	0.60823
2873.56104	0.59825
2871.63247	0.58819
2869.70391	0.57811
2867.77534	0.56772
2865.84678	0.55712
2863.91821	0.54657
2861.98965	0.53605
2860.06108	0.52594
2858.13252	0.51665
2856.20396	0.50768
2854.27539	0.49867
2852.34683	0.49003
2850.41826	0.48208
2848.48970	0.47444
2846.56113	0.46675
2844.63257	0.45932
2842.70400	0.45255
2840.77544	0.44628
2838.84687	0.44027
2836.91831	0.43442
2834.98975	0.42846
2833.06118	0.42244
2831.13262	0.41664
2829.20405	0.41089
2827.27549	0.40498
2825.34692	0.39898
2823.41836	0.39306
2821.48979	0.38727
2819.56123	0.38167
2817.63267	0.37619
2815.70410	0.37078
2813.77554	0.36546
2811.84697	0.36025
2809.91841	0.35523
2807.98984	0.35018
2806.06128	0.34486
2804.13271	0.33957
2802.20415	0.33467
2800.27559	0.33002
2798.34702	0.32552
2796.41846	0.32114
2794.48989	0.31676
2792.56133	0.31235
2790.63276	0.30802
2788.70420	0.30381
2786.77563	0.29954
2784.84707	0.29533
2782.91851	0.29133
2780.98994	0.28734
2779.06138	0.28350
2777.13281	0.28003
2775.20425	0.27652
2773.27568	0.27284
2771.34712	0.26930
2769.41855	0.26586
2767.48999	0.26240
2765.56143	0.25899
2763.63286	0.25577
2761.70430	0.25265
2759.77573	0.24940
2757.84717	0.24614
2755.91860	0.24316
2753.99004	0.24041
2752.06147	0.23769
2750.13291	0.23491
2748.20435	0.23209
2746.27578	0.22930
2744.34722	0.22671
2742.41865	0.22431
2740.49009	0.22188
2738.56152	0.21940
2736.63296	0.21699
2734.70439	0.21458
2732.77583	0.21211
2730.84727	0.20970
2728.91870	0.20748
2726.99014	0.20546
2725.06157	0.20347
2723.13301	0.20143
2721.20444	0.19941
2719.27588	0.19748
2717.34731	0.19557
2715.41875	0.19361
2713.49019	0.19172
2711.56162	0.18998
2709.63306	0.18830
2707.70449	0.18671
2705.77593	0.18524
2703.84736	0.18376
2701.91880	0.18227
2699.99023	0.18094
2698.06167	0.17965
2696.13311	0.17811
2694.20454	0.17645
2692.27598	0.17500
2690.34741	0.17381
2688.41885	0.17270
2686.49028	0.17159
2684.56172	0.17062
2682.63315	0.16960
2680.70459	0.16833
2678.77603	0.16711
2676.84746	0.16606
2674.91890	0.16502
2672.99033	0.16393
2671.06177	0.16289
2669.13320	0.16196
2667.20464	0.16109
2665.27607	0.16023
2663.34751	0.15938
2661.41895	0.15849
2659.49038	0.15767
2657.56182	0.15705
2655.63325	0.15651
2653.70469	0.15597
2651.77612	0.15545
2649.84756	0.15482
2647.91899	0.15398
2645.99043	0.15317
2644.06187	0.15256
2642.13330	0.15210
2640.20474	0.15165
2638.27617	0.15119
2636.34761	0.15079
2634.41904	0.15043
2632.49048	0.15000
2630.56191	0.14956
2628.63335	0.14926
2626.70479	0.14897
2624.77622	0.14851
2622.84766	0.14812
2620.91909	0.14800
2618.99053	0.14797
2617.06196	0.14781
2615.13340	0.14764
2613.20483	0.14756
2611.27627	0.14745
2609.34771	0.14727
2607.41914	0.14713
2605.49058	0.14706
2603.56201	0.14693
2601.63345	0.14674
2599.70488	0.14667
2597.77632	0.14676
2595.84775	0.14695
2593.91919	0.14710
2591.99062	0.14720
2590.06206	0.14736
2588.13350	0.14763
2586.20493	0.14785
2584.27637	0.14794
2582.34780	0.14813
2580.41924	0.14856
2578.49067	0.14900
2576.56211	0.14923
2574.63354	0.14930
2572.70498	0.14944
2570.77642	0.14984
2568.84785	0.15038
2566.91929	0.15084
2564.99072	0.15122
2563.06216	0.15154
2561.13359	0.15179
2559.20503	0.15210
2557.27646	0.15257
2555.34790	0.15315
2553.41934	0.15371
2551.49077	0.15424
2549.56221	0.15473
2547.63364	0.15523
2545.70508	0.15582
2543.77651	0.15641
2541.84795	0.15695
2539.91938	0.15761
2537.99082	0.15839
2536.06226	0.15904
2534.13369	0.15954
2532.20513	0.16010
2530.27656	0.16077
2528.34800	0.16140
2526.41943	0.16197
2524.49087	0.16259
2522.56230	0.16344
2520.63374	0.16445
2518.70518	0.16535
2516.77661	0.16605
2514.84805	0.16670
2512.91948	0.16746
2510.99092	0.16830
2509.06235	0.16907
2507.13379	0.16973
2505.20522	0.17040
2503.27666	0.17116
2501.34810	0.17196
2499.41953	0.17286
2497.49097	0.17383
2495.56240	0.17474
2493.63384	0.17555
2491.70527	0.17633
2489.77671	0.17710
2487.84814	0.17792
2485.91958	0.17879
2483.99102	0.17965
2482.06245	0.18050
2480.13389	0.18133
2478.20532	0.18220
2476.27676	0.18309
2474.34819	0.18402
2472.41963	0.18500
2470.49106	0.18587
2468.56250	0.18659
2466.63394	0.18740
2464.70537	0.18855
2462.77681	0.18980
2460.84824	0.19074
2458.91968	0.19145
2456.99111	0.19233
2455.06255	0.19341
2453.13398	0.19447
2451.20542	0.19550
2449.27686	0.19648
2447.34829	0.19737
2445.41973	0.19822
2443.49116	0.19917
2441.56260	0.20026
2439.63403	0.20133
2437.70547	0.20229
2435.77690	0.20315
2433.84834	0.20410
2431.91978	0.20523
2429.99121	0.20631
2428.06265	0.20727
2426.13408	0.20835
2424.20552	0.20951
2422.27695	0.21059
2420.34839	0.21161
2418.41982	0.21267
2416.49126	0.21381
2414.56270	0.21491
2412.63413	0.21599
2410.70557	0.21706
2408.77700	0.21802
2406.84844	0.21904
2404.91987	0.22025
2402.99131	0.22156
2401.06274	0.22290
2399.13418	0.22421
2397.20562	0.22535
2395.27705	0.22639
2393.34849	0.22754
2391.41992	0.22879
2389.49136	0.22990
2387.56279	0.23066
2385.63423	0.23075
2383.70566	0.22994
2381.77710	0.22835
2379.84854	0.22625
2377.91997	0.22366
2375.99141	0.22043
2374.06284	0.21651
2372.13428	0.21170
2370.20571	0.20582
2368.27715	0.19883
2366.34858	0.19176
2364.42002	0.18625
2362.49146	0.18280
2360.56289	0.18223
2358.63433	0.18485
2356.70576	0.19106
2354.77720	0.20069
2352.84863	0.21209
2350.92007	0.22254
2348.99150	0.22826
2347.06294	0.22851
2345.13437	0.22446
2343.20581	0.21906
2341.27725	0.21721
2339.34868	0.22004
2337.42012	0.22401
2335.49155	0.22705
2333.56299	0.23015
2331.63442	0.23326
2329.70586	0.23568
2327.77729	0.23837
2325.84873	0.24260
2323.92017	0.24759
2321.99160	0.25221
2320.06304	0.25681
2318.13447	0.26156
2316.20591	0.26574
2314.27734	0.26928
2312.34878	0.27256
2310.42021	0.27569
2308.49165	0.27881
2306.56309	0.28236
2304.63452	0.28616
2302.70596	0.28951
2300.77739	0.29231
2298.84883	0.29494
2296.92026	0.29754
2294.99170	0.30024
2293.06313	0.30309
2291.13457	0.30586
2289.20601	0.30845
2287.27744	0.31106
2285.34888	0.31371
2283.42031	0.31611
2281.49175	0.31813
2279.56318	0.32000
2277.63462	0.32188
2275.70605	0.32378
2273.77749	0.32575
2271.84893	0.32789
2269.92036	0.33011
2267.99180	0.33232
2266.06323	0.33446
2264.13467	0.33649
2262.20610	0.33858
2260.27754	0.34073
2258.34897	0.34287
2256.42041	0.34509
2254.49185	0.34746
2252.56328	0.34977
2250.63472	0.35199
2248.70615	0.35421
2246.77759	0.35639
2244.84902	0.35854
2242.92046	0.36079
2240.99189	0.36309
2239.06333	0.36528
2237.13477	0.36742
2235.20620	0.36969
2233.27764	0.37206
2231.34907	0.37438
2229.42051	0.37657
2227.49194	0.37871
2225.56338	0.38080
2223.63481	0.38289
2221.70625	0.38504
2219.77769	0.38722
2217.84912	0.38941
2215.92056	0.39166
2213.99199	0.39386
2212.06343	0.39586
2210.13486	0.39775
2208.20630	0.39976
2206.27773	0.40196
2204.34917	0.40416
2202.42061	0.40626
2200.49204	0.40827
2198.56348	0.41019
2196.63491	0.41203
2194.70635	0.41384
2192.77778	0.41573
2190.84922	0.41783
2188.92065	0.41981
2186.99209	0.42142
2185.06353	0.42301
2183.13496	0.42486
2181.20640	0.42674
2179.27783	0.42843
2177.34927	0.42997
2175.42070	0.43147
2173.49214	0.43291
2171.56357	0.43425
2169.63501	0.43558
2167.70645	0.43703
2165.77788	0.43839
2163.84932	0.43956
2161.92075	0.44067
2159.99219	0.44175
2158.06362	0.44281
2156.13506	0.44385
2154.20649	0.44478
2152.27793	0.44556
2150.34937	0.44632
2148.42080	0.44709
2146.49224	0.44772
2144.56367	0.44813
2142.63511	0.44843
2140.70654	0.44876
2138.77798	0.44910
2136.84941	0.44940
2134.92085	0.44962
2132.99229	0.44962
2131.06372	0.44952
2129.13516	0.44954
2127.20659	0.44946
2125.27803	0.44909
2123.34946	0.44854
2121.42090	0.44809
2119.49233	0.44772
2117.56377	0.44725
2115.63521	0.44661
2113.70664	0.44588
2111.77808	0.44511
2109.84951	0.44427
2107.92095	0.44330
2105.99238	0.44223
2104.06382	0.44111
2102.13525	0.43992
2100.20669	0.43866
2098.27812	0.43736
2096.34956	0.43604
2094.42100	0.43462
2092.49243	0.43316
2090.56387	0.43166
2088.63530	0.42997
2086.70674	0.42822
2084.77817	0.42650
2082.84961	0.42475
2080.92104	0.42286
2078.99248	0.42094
2077.06392	0.41899
2075.13535	0.41690
2073.20679	0.41465
2071.27822	0.41237
2069.34966	0.41020
2067.42109	0.40803
2065.49253	0.40581
2063.56396	0.40351
2061.63540	0.40117
2059.70684	0.39883
2057.77827	0.39653
2055.84971	0.39418
2053.92114	0.39166
2051.99258	0.38906
2050.06401	0.38655
2048.13545	0.38414
2046.20688	0.38157
2044.27832	0.37883
2042.34976	0.37610
2040.42119	0.37342
2038.49263	0.37084
2036.56406	0.36832
2034.63550	0.36571
2032.70693	0.36294
2030.77837	0.36016
2028.84980	0.35744
2026.92124	0.35480
2024.99268	0.35220
2023.06411	0.34956
2021.13555	0.34686
2019.20698	0.34422
2017.27842	0.34165
2015.34985	0.33897
2013.42129	0.33613
2011.49272	0.33325
2009.56416	0.33051
2007.63560	0.32789
2005.70703	0.32529
2003.77847	0.32267
2001.84990	0.32004
1999.92134	0.31743
1997.99277	0.31478
1996.06421	0.31218
1994.13564	0.30978
1992.20708	0.30751
1990.27852	0.30509
1988.34995	0.30252
1986.42139	0.29996
1984.49282	0.29750
1982.56426	0.29510
1980.63569	0.29279
1978.70713	0.29060
1976.77856	0.28840
1974.85000	0.28615
1972.92144	0.28394
1970.99287	0.28184
1969.06431	0.27985
1967.13574	0.27791
1965.20718	0.27592
1963.27861	0.27392
1961.35005	0.27196
1959.42148	0.27014
1957.49292	0.26845
1955.56436	0.26676
1953.63579	0.26503
1951.70723	0.26328
1949.77866	0.26155
1947.85010	0.25993
1945.92153	0.25845
1943.99297	0.25706
1942.06440	0.25570
1940.13584	0.25417
1938.20728	0.25255
1936.27871	0.25110
1934.35015	0.24980
1932.42158	0.24860
1930.49302	0.24747
1928.56445	0.24633
1926.63589	0.24523
1924.70732	0.24434
1922.77876	0.24357
1920.85020	0.24259
1918.92163	0.24155
1916.99307	0.24062
1915.06450	0.23968
1913.13594	0.23879
1911.20737	0.23811
1909.27881	0.23744
1907.35024	0.23669
1905.42168	0.23596
1903.49312	0.23535
1901.56455	0.23478
1899.63599	0.23418
1897.70742	0.23370
1895.77886	0.23343
1893.85029	0.23326
1891.92173	0.23301
1889.99316	0.23276
1888.06460	0.23244
1886.13604	0.23203
1884.20747	0.23167
1882.27891	0.23139
1880.35034	0.23125
1878.42178	0.23117
1876.49321	0.23114
1874.56465	0.23112
1872.63608	0.23121
1870.70752	0.23147
1868.77896	0.23207
1866.85039	0.23247
1864.92183	0.23234
1862.99326	0.23222
1861.06470	0.23237
1859.13613	0.23271
1857.20757	0.23299
1855.27900	0.23337
1853.35044	0.23383
1851.42187	0.23433
1849.49331	0.23491
1847.56475	0.23569
1845.63618	0.23667
1843.70762	0.23773
1841.77905	0.23841
1839.85049	0.23871
1837.92192	0.23935
1835.99336	0.24024
1834.06479	0.24117
1832.13623	0.24216
1830.20767	0.24354
1828.27910	0.24494
1826.35054	0.24597
1824.42197	0.24722
1822.49341	0.24848
1820.56484	0.24972
1818.63628	0.25110
1816.70771	0.25269
1814.77915	0.25422
1812.85059	0.25589
1810.92202	0.25793
1808.99346	0.26004
1807.06489	0.26199
1805.13633	0.26385
1803.20776	0.26601
1801.27920	0.26846
1799.35063	0.27119
1797.42207	0.27368
1795.49351	0.27606
1793.56494	0.27886
1791.63638	0.28259
1789.70781	0.28604
1787.77925	0.28845
1785.85068	0.29141
1783.92212	0.29506
1781.99355	0.29896
1780.06499	0.30302
1778.13643	0.30722
1776.20786	0.31123
1774.27930	0.31562
1772.35073	0.32154
1770.42217	0.32781
1768.49360	0.33297
1766.56504	0.33792
1764.63647	0.34303
1762.70791	0.34881
1760.77935	0.35631
1758.85078	0.36329
1756.92222	0.37023
1754.99365	0.37786
1753.06509	0.38481
1751.13652	0.39311
1749.20796	0.40373
1747.27939	0.41427
1745.35083	0.42342
1743.42227	0.43294
1741.49370	0.44326
1739.56514	0.45540
1737.63657	0.46769
1735.70801	0.47851
1733.77944	0.49487
1731.85088	0.51435
1729.92231	0.52950
1727.99375	0.54489
1726.06519	0.56155
1724.13662	0.57975
1722.20806	0.59933
1720.27949	0.61736
1718.35093	0.63868
1716.42236	0.67054
1714.49380	0.70082
1712.56523	0.72513
1710.63667	0.74866
1708.70811	0.77410
1706.77954	0.80318
1704.85098	0.83816
1702.92241	0.86946
1700.99385	0.90024
1699.06528	0.94574
1697.13672	0.98766
1695.20815	1.03138
1693.27959	1.07404
1691.35103	1.10836
1689.42246	1.14817
1687.49390	1.19030
1685.56533	1.23057
1683.63677	1.29299
1681.70820	1.35837
1679.77964	1.40004
1677.85107	1.43943
1675.92251	1.48491
1673.99395	1.54156
1672.06538	1.59170
1670.13682	1.64047
1668.20825	1.70512
1666.27969	1.75851
1664.35112	1.80294
1662.42256	1.85864
1660.49399	1.92306
1658.56543	1.97361
1656.63687	2.01312
1654.70830	2.04834
1652.77974	2.10489
1650.85117	2.16104
1648.92261	2.18250
1646.99404	2.20936
1645.06548	2.23884
1643.13691	2.25737
1641.20835	2.26790
1639.27979	2.27687
1637.35122	2.28251
1635.42266	2.28313
1633.49409	2.27579
1631.56553	2.26220
1629.63696	2.24584
1627.70840	2.21817
1625.77983	2.18459
1623.85127	2.14200
1621.92271	2.09030
1619.99414	2.04514
1618.06558	2.00105
1616.13701	1.93741
1614.20845	1.87284
1612.27988	1.82419
1610.35132	1.77304
1608.42275	1.71715
1606.49419	1.66234
1604.56562	1.61201
1602.63706	1.56365
1600.70850	1.51655
1598.77993	1.47279
1596.85137	1.43133
1594.92280	1.39105
1592.99424	1.35210
1591.06567	1.31664
1589.13711	1.28392
1587.20854	1.25330
1585.27998	1.22464
1583.35142	1.19792
1581.42285	1.17355
1579.49429	1.15267
1577.56572	1.13403
1575.63716	1.11173
1573.70859	1.09236
1571.78003	1.08005
1569.85146	1.06746
1567.92290	1.05339
1565.99434	1.04264
1564.06577	1.03452
1562.13721	1.02877
1560.20864	1.02582
1558.28008	1.02323
1556.35151	1.01994
1554.42295	1.01704
1552.49438	1.01432
1550.56582	1.01075
1548.63726	1.00551
1546.70869	0.99912
1544.78013	0.99080
1542.85156	0.97974
1540.92300	0.96451
1538.99443	0.94146
1537.06587	0.92397
1535.13730	0.91208
1533.20874	0.89652
1531.28018	0.87941
1529.35161	0.86675
1527.42305	0.85491
1525.49448	0.84268
1523.56592	0.83246
1521.63735	0.82289
1519.70879	0.81272
1517.78022	0.80382
1515.85166	0.79386
1513.92310	0.78358
1511.99453	0.77472
1510.06597	0.76679
1508.13740	0.75921
1506.20884	0.74740
1504.28027	0.73681
1502.35171	0.73071
1500.42314	0.72549
1498.49458	0.72011
1496.56602	0.71365
1494.63745	0.70699
1492.70889	0.70193
1490.78032	0.69770
1488.85176	0.69275
1486.92319	0.68785
1484.99463	0.68394
1483.06606	0.68092
1481.13750	0.67834
1479.20894	0.67615
1477.28037	0.67482
1475.35181	0.67429
1473.42324	0.67383
1471.49468	0.67226
1469.56611	0.66983
1467.63755	0.66753
1465.70898	0.66552
1463.78042	0.66370
1461.85186	0.66228
1459.92329	0.66145
1457.99473	0.66116
1456.06616	0.66041
1454.13760	0.65812
1452.20903	0.65559
1450.28047	0.65308
1448.35190	0.65052
1446.42334	0.64798
1444.49478	0.64562
1442.56621	0.64334
1440.63765	0.64100
1438.70908	0.63856
1436.78052	0.63550
1434.85195	0.63221
1432.92339	0.62977
1430.99482	0.62804
1429.06626	0.62683
1427.13770	0.62609
1425.20913	0.62578
1423.28057	0.62574
1421.35200	0.62564
1419.42344	0.62554
1417.49487	0.62520
1415.56631	0.62417
1413.63774	0.62320
1411.70918	0.62279
1409.78062	0.62299
1407.85205	0.62355
1405.92349	0.62431
1403.99492	0.62483
1402.06636	0.62463
1400.13779	0.62401
1398.20923	0.62291
1396.28066	0.62100
1394.35210	0.61815
1392.42354	0.61474
1390.49497	0.61143
1388.56641	0.60813
1386.63784	0.60437
1384.70928	0.60047
1382.78071	0.59682
1380.85215	0.59337
1378.92358	0.59040
1376.99502	0.58818
1375.06646	0.58658
1373.13789	0.58519
1371.20933	0.58399
1369.28076	0.58306
1367.35220	0.58200
1365.42363	0.58072
1363.49507	0.57956
1361.56650	0.57840
1359.63794	0.57697
1357.70937	0.57562
1355.78081	0.57449
1353.85225	0.57345
1351.92368	0.57250
1349.99512	0.57170
1348.06655	0.57096
1346.13799	0.57016
1344.20942	0.56944
1342.28086	0.56889
1340.35229	0.56841
1338.42373	0.56779
1336.49517	0.56706
1334.56660	0.56648
1332.63804	0.56615
1330.70947	0.56602
1328.78091	0.56604
1326.85234	0.56613
1324.92378	0.56620
1322.99521	0.56644
1321.06665	0.56684
1319.13809	0.56712
1317.20952	0.56713
1315.28096	0.56693
1313.35239	0.56661
1311.42383	0.56613
1309.49526	0.56537
1307.56670	0.56454
1305.63813	0.56394
1303.70957	0.56352
1301.78101	0.56304
1299.85244	0.56230
1297.92388	0.56136
1295.99531	0.56043
1294.06675	0.55952
1292.13818	0.55857
1290.20962	0.55761
1288.28105	0.55662
1286.35249	0.55563
1284.42393	0.55472
1282.49536	0.55378
1280.56680	0.55282
1278.63823	0.55185
1276.70967	0.55079
1274.78110	0.54969
1272.85254	0.54874
1270.92397	0.54810
1268.99541	0.54763
1267.06685	0.54714
1265.13828	0.54654
1263.20972	0.54586
1261.28115	0.54521
1259.35259	0.54460
1257.42402	0.54408
1255.49546	0.54384
1253.56689	0.54376
1251.63833	0.54361
1249.70977	0.54335
1247.78120	0.54307
1245.85264	0.54284
1243.92407	0.54250
1241.99551	0.54184
1240.06694	0.54084
1238.13838	0.53952
1236.20981	0.53797
1234.28125	0.53636
1232.35269	0.53480
1230.42412	0.53327
1228.49556	0.53177
1226.56699	0.53026
1224.63843	0.52877
1222.70986	0.52741
1220.78130	0.52611
1218.85273	0.52483
1216.92417	0.52375
1214.99561	0.52297
1213.06704	0.52238
1211.13848	0.52172
1209.20991	0.52089
1207.28135	0.52002
1205.35278	0.51916
1203.42422	0.51835
1201.49565	0.51772
1199.56709	0.51714
1197.63853	0.51651
1195.70996	0.51595
1193.78140	0.51546
1191.85283	0.51502
1189.92427	0.51469
1187.99570	0.51442
1186.06714	0.51420
1184.13857	0.51410
1182.21001	0.51432
1180.28145	0.51492
1178.35288	0.51579
1176.42432	0.51689
1174.49575	0.51799
1172.56719	0.51880
1170.63862	0.51923
1168.71006	0.51938
1166.78149	0.51932
1164.85293	0.51917
1162.92437	0.51897
1160.99580	0.51874
1159.06724	0.51839
1157.13867	0.51774
1155.21011	0.51682
1153.28154	0.51576
1151.35298	0.51443
1149.42441	0.51257
1147.49585	0.51029
1145.56729	0.50786
1143.63872	0.50541
1141.71016	0.50301
1139.78159	0.50073
1137.85303	0.49870
1135.92446	0.49721
1133.99590	0.49637
1132.06733	0.49579
1130.13877	0.49503
1128.21021	0.49409
1126.28164	0.49306
1124.35308	0.49203
1122.42451	0.49112
1120.49595	0.49060
1118.56738	0.49039
1116.63882	0.49026
1114.71025	0.49045
1112.78169	0.49100
1110.85312	0.49136
1108.92456	0.49157
1106.99600	0.49229
1105.06743	0.49363
1103.13887	0.49522
1101.21030	0.49689
1099.28174	0.49888
1097.35317	0.50130
1095.42461	0.50407
1093.49604	0.50743
1091.56748	0.51176
1089.63892	0.51708
1087.71035	0.52307
1085.78179	0.52962
1083.85322	0.53645
1081.92466	0.54298
1079.99609	0.54856
1078.06753	0.55225
1076.13896	0.55312
1074.21040	0.55073
1072.28184	0.54568
1070.35327	0.53926
1068.42471	0.53254
1066.49614	0.52601
1064.56758	0.51984
1062.63901	0.51412
1060.71045	0.50905
1058.78188	0.50469
1056.85332	0.50084
1054.92476	0.49732
1052.99619	0.49415
1051.06763	0.49141
1049.13906	0.48917
1047.21050	0.48736
1045.28193	0.48580
1043.35337	0.48439
1041.42480	0.48322
1039.49624	0.48244
1037.56768	0.48209
1035.63911	0.48203
1033.71055	0.48179
1031.78198	0.48113
1029.85342	0.48048
1027.92485	0.48015
1025.99629	0.48003
1024.06772	0.47998
1022.13916	0.48005
1020.21060	0.48039
1018.28203	0.48094
1016.35347	0.48147
1014.42490	0.48204
1012.49634	0.48283
1010.56777	0.48380
1008.63921	0.48492
1006.71064	0.48633
1004.78208	0.48819
1002.85352	0.49057
1000.92495	0.49332
998.99639	0.49633
997.06782	0.49986
995.13926	0.50392
993.21069	0.50797
991.28213	0.51124
989.35356	0.51336
987.42500	0.51470
985.49644	0.51573
983.56787	0.51656
981.63931	0.51727
979.71074	0.51804
977.78218	0.51938
975.85361	0.52162
973.92505	0.52435
971.99648	0.52729
970.06792	0.53045
968.13936	0.53384
966.21079	0.53769
964.28223	0.54207
962.35366	0.54678
960.42510	0.55178
958.49653	0.55697
956.56797	0.56230
954.63940	0.56816
952.71084	0.57458
950.78228	0.58112
948.85371	0.58760
946.92515	0.59370
944.99658	0.59940
943.06802	0.60527
941.13945	0.61135
939.21089	0.61737
937.28232	0.62328
935.35376	0.62882
933.42520	0.63405
931.49663	0.63897
929.56807	0.64377
927.63950	0.64933
925.71094	0.65581
923.78237	0.66242
921.85381	0.66886
919.92524	0.67553
917.99668	0.68233
916.06812	0.68897
914.13955	0.69646
912.21099	0.70493
910.28242	0.71276
908.35386	0.71977
906.42529	0.72724
904.49673	0.73598
902.56816	0.74582
900.63960	0.75574
898.71104	0.76472
896.78247	0.77335
894.85391	0.78351
892.92534	0.79477
890.99678	0.80522
889.06821	0.81538
887.13965	0.82612
885.21108	0.83671
883.28252	0.84700
881.35396	0.85758
879.42539	0.86893
877.49683	0.88031
875.56826	0.89081
873.63970	0.90213
871.71113	0.91509
869.78257	0.92738
867.85400	0.93815
865.92544	0.94854
863.99687	0.95893
862.06831	0.96946
860.13975	0.98044
858.21118	0.99232
856.28262	1.00522
854.35405	1.01711
852.42549	1.02686
850.49692	1.03795
848.56836	1.05130
846.63979	1.06312
844.71123	1.07263
842.78267	1.08269
840.85410	1.09520
838.92554	1.10785
836.99697	1.11857
835.06841	1.13006
833.13984	1.14522
831.21128	1.16149
829.28271	1.17428
827.35415	1.18252
825.42559	1.18889
823.49702	1.20001
821.56846	1.21433
819.63989	1.22254
817.71133	1.22753
815.78276	1.24051
813.85420	1.26029
811.92563	1.27291
809.99707	1.27656
808.06851	1.28799
806.13994	1.31326
804.21138	1.32461
802.28281	1.30304
800.35425	1.27578
798.42568	1.27257
796.49712	1.29687
794.56855	1.32962
792.63999	1.35957
790.71143	1.38457
788.78286	1.37294
786.85430	1.31796
784.92573	1.27259
782.99717	1.27072
781.06860	1.33090
779.14004	1.44096
777.21147	1.47311
775.28291	1.38640
773.35435	1.36662
771.42578	1.49740
769.49722	1.65785
767.56865	1.61687
765.64009	1.54830
763.71152	1.51491
761.78296	1.44251
759.85439	1.35941
757.92583	1.35173
755.99727	1.41399
754.06870	1.56127
752.14014	1.94246
750.21157	1.95318
748.28301	1.60613
746.35444	1.49084
744.42588	1.44511
742.49731	1.53137
740.56875	1.53970
738.64019	1.18632
736.71162	0.86574
734.78306	0.65804
732.85449	0.55969
730.92593	0.53280
728.99736	0.52845
727.06880	0.54983
725.14023	0.59822
723.21167	0.60093
721.28311	0.50322
719.35454	0.32140
717.42598	0.11590
715.49741	-0.00212
713.56885	0.10177
711.64028	0.22509
709.71172	0.22671
707.78315	0.32173
705.85459	0.95519
703.92603	4.22356
701.99746	0.53466
700.06890	0.27368
698.14033	0.18418
696.21177	0.17079
694.28320	0.15600
692.35464	0.17106
690.42607	0.21350
688.49751	0.19943
686.56895	0.17766
684.64038	0.21300
682.71182	0.27905
680.78325	0.31919
678.85469	0.33618
676.92612	0.43592
674.99756	0.49540
673.06899	0.30069
671.14043	0.22828
669.21187	0.36048
667.28330	0.50027
665.35474	0.49508
663.42617	0.47219
661.49761	0.47531
659.56904	0.42169
657.64048	0.37129
655.71191	0.41716
653.78335	0.64116
651.85479	0.83359
649.92622	0.64158
647.99766	0.43006
646.06909	0.36029
644.14053	0.46379
642.21196	0.53059
640.28340	0.36640
638.35483	0.20692
636.42627	0.19734
634.49771	0.27460
632.56914	0.32434
630.64058	0.30323
628.71201	0.26452
626.78345	0.28327
624.85488	0.37038
622.92632	0.39176
620.99775	0.29384
619.06919	0.26186
617.14062	0.36957
615.21206	0.73456
613.28350	0.75523
611.35493	0.47358
609.42637	0.50938
607.49780	0.66334
605.56924	0.46740
603.64067	0.33509
601.71211	0.31032
599.78354	0.32522
597.85498	0.35488
595.92642	0.28416
593.99785	0.14956
592.06929	0.11284
590.14072	0.21493
588.21216	0.27871
586.28359	0.15950
584.35503	0.12810
582.42646	0.20579
580.49790	0.26214
578.56934	0.29558
576.64077	0.56444
574.71221	3.44827
572.78364	3.43670
570.85508	0.84005
568.92651	0.56147
566.99795	0.44549
565.06938	0.34550
563.14082	0.23217
561.21226	0.16238
559.28369	0.24006
557.35513	0.42328
555.42656	0.39142
553.49800	0.30076
551.56943	0.29919
549.64087	0.32213
547.71230	0.31288
545.78374	0.35842
543.85518	0.50237
541.92661	0.69540
539.99805	0.71618
538.06948	0.47519
536.14092	0.31522
534.21235	0.25833
532.28379	0.24549
530.35522	0.24317
528.42666	0.26454
526.49810	0.34302
524.56953	0.48915
522.64097	0.55759
520.71240	0.35229
518.78384	0.20281
516.85527	0.18981
514.92671	0.22677
512.99814	0.28935
511.06958	0.37361
509.14102	0.40670
507.21245	0.33299
505.28389	0.24598
503.35532	0.22337
501.42676	0.30859
499.49819	0.43742
