3997.91411	0.06603
3995.98555	0.06626
3994.05698	0.06680
3992.12842	0.06736
3990.19985	0.06787
3988.27129	0.06859
3986.34272	0.06909
3984.41416	0.06895
3982.48560	0.06851
3980.55703	0.06834
3978.62847	0.06869
3976.69990	0.06921
3974.77134	0.06940
3972.84277	0.06940
3970.91421	0.06954
3968.98564	0.06984
3967.05708	0.07022
3965.12852	0.07039
3963.19995	0.07015
3961.27139	0.07011
3959.34282	0.07066
3957.41426	0.07117
3955.48569	0.07129
3953.55713	0.07143
3951.62856	0.07185
3949.70000	0.07220
3947.77144	0.07227
3945.84287	0.07224
3943.91431	0.07233
3941.98574	0.07245
3940.05718	0.07204
3938.12861	0.07136
3936.20005	0.07118
3934.27148	0.07167
3932.34292	0.07259
3930.41436	0.07307
3928.48579	0.07251
3926.55723	0.07191
3924.62866	0.07207
3922.70010	0.07244
3920.77153	0.07262
3918.84297	0.07289
3916.91440	0.07305
3914.98584	0.07249
3913.05728	0.07146
3911.12871	0.07069
3909.20015	0.07030
3907.27158	0.07053
3905.34302	0.07205
3903.41445	0.07417
3901.48589	0.07503
3899.55732	0.07469
3897.62876	0.07360
3895.70020	0.07215
3893.77163	0.07180
3891.84307	0.07315
3889.91450	0.07440
3887.98594	0.07377
3886.05737	0.07308
3884.12881	0.07327
3882.20024	0.07336
3880.27168	0.07364
3878.34312	0.07413
3876.41455	0.07415
3874.48599	0.07453
3872.55742	0.07563
3870.62886	0.07687
3868.70029	0.07748
3866.77173	0.07689
3864.84316	0.07662
3862.91460	0.07716
3860.98604	0.07724
3859.05747	0.07683
3857.12891	0.07668
3855.20034	0.07774
3853.27178	0.08118
3851.34321	0.08368
3849.41465	0.08161
3847.48608	0.07921
3845.55752	0.07819
3843.62896	0.07855
3841.70039	0.08009
3839.77183	0.08252
3837.84326	0.08481
3835.91470	0.08550
3833.98613	0.08540
3832.05757	0.08546
3830.12900	0.08542
3828.20044	0.08530
3826.27187	0.08561
3824.34331	0.08668
3822.41475	0.08860
3820.48618	0.09106
3818.55762	0.09216
3816.62905	0.09217
3814.70049	0.09200
3812.77192	0.09116
3810.84336	0.09093
3808.91479	0.09217
3806.98623	0.09441
3805.05767	0.09642
3803.12910	0.09811
3801.20054	0.10060
3799.27197	0.10225
3797.34341	0.10224
3795.41484	0.10231
3793.48628	0.10207
3791.55771	0.10193
3789.62915	0.10282
3787.70059	0.10435
3785.77202	0.10628
3783.84346	0.10834
3781.91489	0.10994
3779.98633	0.11140
3778.05776	0.11291
3776.12920	0.11379
3774.20063	0.11450
3772.27207	0.11596
3770.34351	0.11871
3768.41494	0.12195
3766.48638	0.12387
3764.55781	0.12527
3762.62925	0.12699
3760.70068	0.12920
3758.77212	0.13245
3756.84355	0.13581
3754.91499	0.13814
3752.98643	0.14075
3751.05786	0.14552
3749.12930	0.15104
3747.20073	0.15349
3745.27217	0.15526
3743.34360	0.15952
3741.41504	0.16420
3739.48647	0.16747
3737.55791	0.17155
3735.62935	0.17831
3733.70078	0.18628
3731.77222	0.19147
3729.84365	0.19471
3727.91509	0.19835
3725.98652	0.20369
3724.05796	0.21019
3722.12939	0.21621
3720.20083	0.22150
3718.27227	0.22672
3716.34370	0.23257
3714.41514	0.23954
3712.48657	0.24999
3710.55801	0.26623
3708.62944	0.28196
3706.70088	0.29242
3704.77231	0.30242
3702.84375	0.31535
3700.91519	0.33228
3698.98662	0.35049
3697.05806	0.36787
3695.12949	0.38645
3693.20093	0.40658
3691.27236	0.42906
3689.34380	0.45788
3687.41523	0.49181
3685.48667	0.52060
3683.55811	0.54585
3681.62954	0.57394
3679.70098	0.60582
3677.77241	0.63917
3675.84385	0.67879
3673.91528	0.73237
3671.98672	0.77621
3670.05815	0.81472
3668.12959	0.86712
3666.20103	0.91516
3664.27246	0.95568
3662.34390	0.99944
3660.41533	1.04697
3658.48677	1.09368
3656.55820	1.14300
3654.62964	1.19813
3652.70107	1.24500
3650.77251	1.28650
3648.84395	1.34404
3646.91538	1.41292
3644.98682	1.46224
3643.05825	1.50104
3641.12969	1.54153
3639.20112	1.58561
3637.27256	1.62971
3635.34399	1.67339
3633.41543	1.71754
3631.48687	1.75854
3629.55830	1.80026
3627.62974	1.85554
3625.70117	1.90665
3623.77261	1.94035
3621.84404	1.97255
3619.91548	2.00960
3617.98691	2.05477
3616.05835	2.09892
3614.12979	2.13590
3612.20122	2.17461
3610.27266	2.21381
3608.34409	2.25350
3606.41553	2.29543
3604.48696	2.33389
3602.55840	2.36870
3600.62983	2.40760
3598.70127	2.45011
3596.77271	2.49008
3594.84414	2.52995
3592.91558	2.57181
3590.98701	2.61080
3589.05845	2.64597
3587.12988	2.68784
3585.20132	2.73552
3583.27275	2.77663
3581.34419	2.81373
3579.41562	2.85255
3577.48706	2.89351
3575.55850	2.93418
3573.62993	2.97576
3571.70137	3.01888
3569.77280	3.06139
3567.84424	3.10447
3565.91567	3.15554
3563.98711	3.20557
3562.05854	3.24690
3560.12998	3.28909
3558.20142	3.33458
3556.27285	3.38143
3554.34429	3.42802
3552.41572	3.47381
3550.48716	3.51833
3548.55859	3.56209
3546.63003	3.60530
3544.70146	3.65074
3542.77290	3.69734
3540.84434	3.74167
3538.91577	3.78599
3536.98721	3.83228
3535.05864	3.88190
3533.13008	3.93200
3531.20151	3.98210
3529.27295	4.03180
3527.34438	4.07915
3525.41582	4.12544
3523.48726	4.17154
3521.55869	4.21754
3519.63013	4.26433
3517.70156	4.31451
3515.77300	4.36580
3513.84443	4.41701
3511.91587	4.46860
3509.98730	4.51883
3508.05874	4.56712
3506.13018	4.61205
3504.20161	4.65581
3502.27305	4.70332
3500.34448	4.75201
3498.41592	4.79654
3496.48735	4.84102
3494.55879	4.88919
3492.63022	4.93785
3490.70166	4.98488
3488.77310	5.03040
3486.84453	5.07406
3484.91597	5.12114
3482.98740	5.17844
3481.05884	5.23569
3479.13027	5.27770
3477.20171	5.31469
3475.27314	5.36144
3473.34458	5.41533
3471.41602	5.46611
3469.48745	5.51163
3467.55889	5.55979
3465.63032	5.61465
3463.70176	5.67274
3461.77319	5.72239
3459.84463	5.76337
3457.91606	5.81016
3455.98750	5.86236
3454.05894	5.90713
3452.13037	5.95018
3450.20181	6.00714
3448.27324	6.06637
3446.34468	6.10965
3444.41611	6.15425
3442.48755	6.22274
3440.55898	6.29046
3438.63042	6.33256
3436.70186	6.36045
3434.77329	6.40323
3432.84473	6.46243
3430.91616	6.49553
3428.98760	6.51315
3427.05903	6.56284
3425.13047	6.64277
3423.20190	6.70668
3421.27334	6.73653
3419.34478	6.77729
3417.41621	6.85718
3415.48765	6.93079
3413.55908	6.97060
3411.63052	7.01623
3409.70195	7.08030
3407.77339	7.14282
3405.84482	7.17595
3403.91626	7.18554
3401.98770	7.20610
3400.05913	7.25736
3398.13057	7.31592
3396.20200	7.33518
3394.27344	7.31021
3392.34487	7.27825
3390.41631	7.32535
3388.48774	7.45117
3386.55918	7.52389
3384.63062	7.51208
3382.70205	7.54463
3380.77349	7.63122
3378.84492	7.65804
3376.91636	7.63152
3374.98779	7.66367
3373.05923	7.77161
3371.13066	7.80594
3369.20210	7.77713
3367.27354	7.79523
3365.34497	7.82461
3363.41641	7.84282
3361.48784	7.85057
3359.55928	7.81960
3357.63071	7.80421
3355.70215	7.85435
3353.77358	7.88437
3351.84502	7.91224
3349.91646	7.97260
3347.98789	7.98708
3346.05933	7.95875
3344.13076	7.93814
3342.20220	7.94334
3340.27363	7.98998
3338.34507	8.05993
3336.41650	8.03976
3334.48794	7.96335
3332.55937	7.94669
3330.63081	7.99640
3328.70225	8.06532
3326.77368	8.08563
3324.84512	8.06311
3322.91655	8.05300
3320.98799	8.05829
3319.05942	8.05480
3317.13086	8.09836
3315.20229	8.18767
3313.27373	8.21232
3311.34517	8.12270
3309.41660	7.99918
3307.48804	7.95651
3305.55947	8.00595
3303.63091	8.07225
3301.70234	8.13669
3299.77378	8.20593
3297.84521	8.17515
3295.91665	8.11892
3293.98809	8.17505
3292.05952	8.21443
3290.13096	8.12100
3288.20239	8.02437
3286.27383	8.02455
3284.34526	8.05855
3282.41670	8.05565
3280.48813	8.01272
3278.55957	8.01882
3276.63101	8.13876
3274.70244	8.26396
3272.77388	8.25265
3270.84531	8.14226
3268.91675	8.10060
3266.98818	8.16113
3265.05962	8.20031
3263.13105	8.19849
3261.20249	8.22084
3259.27393	8.28703
3257.34536	8.36650
3255.41680	8.36408
3253.48823	8.30260
3251.55967	8.22876
3249.63110	8.18595
3247.70254	8.26518
3245.77397	8.35365
3243.84541	8.31060
3241.91685	8.19687
3239.98828	8.08506
3238.05972	8.03565
3236.13115	8.03735
3234.20259	8.01768
3232.27402	8.01399
3230.34546	8.08422
3228.41689	8.15500
3226.48833	8.14595
3224.55977	8.09639
3222.63120	8.03903
3220.70264	7.96216
3218.77407	7.90347
3216.84551	7.88177
3214.91694	7.89689
3212.98838	7.91020
3211.05981	7.86396
3209.13125	7.82267
3207.20269	7.83194
3205.27412	7.86228
3203.34556	7.85000
3201.41699	7.76442
3199.48843	7.69452
3197.55986	7.66894
3195.63130	7.62084
3193.70273	7.54174
3191.77417	7.48428
3189.84561	7.46042
3187.91704	7.42724
3185.98848	7.37528
3184.05991	7.32900
3182.13135	7.28823
3180.20278	7.25992
3178.27422	7.26403
3176.34565	7.25179
3174.41709	7.17763
3172.48853	7.10315
3170.55996	7.03775
3168.63140	6.94212
3166.70283	6.83816
3164.77427	6.76988
3162.84570	6.73142
3160.91714	6.66474
3158.98857	6.58756
3157.06001	6.53973
3155.13145	6.48391
3153.20288	6.41323
3151.27432	6.35349
3149.34575	6.28905
3147.41719	6.20768
3145.48862	6.12431
3143.56006	6.04712
3141.63149	5.97564
3139.70293	5.90814
3137.77437	5.84408
3135.84580	5.78097
3133.91724	5.71271
3131.98867	5.63776
3130.06011	5.56276
3128.13154	5.49451
3126.20298	5.43491
3124.27441	5.37474
3122.34585	5.30024
3120.41729	5.22251
3118.48872	5.15581
3116.56016	5.08709
3114.63159	5.00484
3112.70303	4.92200
3110.77446	4.85013
3108.84590	4.78828
3106.91733	4.73212
3104.98877	4.66820
3103.06021	4.59441
3101.13164	4.52480
3099.20308	4.46078
3097.27451	4.39544
3095.34595	4.32821
3093.41738	4.26092
3091.48882	4.19513
3089.56025	4.13210
3087.63169	4.06843
3085.70312	4.00095
3083.77456	3.93412
3081.84600	3.87316
3079.91743	3.81474
3077.98887	3.75395
3076.06030	3.69392
3074.13174	3.63798
3072.20317	3.58274
3070.27461	3.52460
3068.34604	3.46511
3066.41748	3.40752
3064.48892	3.35255
3062.56035	3.29874
3060.63179	3.24503
3058.70322	3.19148
3056.77466	3.13826
3054.84609	3.08602
3052.91753	3.03465
3050.98896	2.98302
3049.06040	2.93184
3047.13184	2.88266
3045.20327	2.83465
3043.27471	2.78631
3041.34614	2.73776
3039.41758	2.69038
3037.48901	2.64435
3035.56045	2.59808
3033.63188	2.55163
3031.70332	2.50666
3029.77476	2.46347
3027.84619	2.42105
3025.91763	2.37878
3023.98906	2.33685
3022.06050	2.29593
3020.13193	2.25605
3018.20337	2.21638
3016.27480	2.17682
3014.34624	2.13814
3012.41768	2.10076
3010.48911	2.06422
3008.56055	2.02792
3006.63198	1.99209
3004.70342	1.95681
3002.77485	1.92159
3000.84629	1.88677
2998.91772	1.85304
2996.98916	1.82038
2995.06060	1.78838
2993.13203	1.75666
2991.20347	1.72538
2989.27490	1.69472
2987.34634	1.66430
2985.41777	1.63436
2983.48921	1.60540
2981.56064	1.57686
2979.63208	1.54847
2977.70352	1.52087
2975.77495	1.49388
2973.84639	1.46688
2971.91782	1.44048
2969.98926	1.41520
2968.06069	1.39007
2966.13213	1.36454
2964.20356	1.33926
2962.27500	1.31460
2960.34644	1.29040
2958.41787	1.26683
2956.48931	1.24404
2954.56074	1.22164
2952.63218	1.19940
2950.70361	1.17727
2948.77505	1.15534
2946.84648	1.13392
2944.91792	1.11292
2942.98936	1.09238
2941.06079	1.07256
2939.13223	1.05303
2937.20366	1.03354
2935.27510	1.01425
2933.34653	0.99509
2931.41797	0.97629
2929.48940	0.95791
2927.56084	0.93997
2925.63228	0.92256
2923.70371	0.90556
2921.77515	0.88911
2919.84658	0.87355
2917.91802	0.85841
2915.98945	0.84324
2914.06089	0.82816
2912.13232	0.81327
2910.20376	0.79881
2908.27520	0.78473
2906.34663	0.77065
2904.41807	0.75676
2902.48950	0.74341
2900.56094	0.73072
2898.63237	0.71870
2896.70381	0.70682
2894.77524	0.69458
2892.84668	0.68234
2890.91812	0.67066
2888.98955	0.65944
2887.06099	0.64833
2885.13242	0.63748
2883.20386	0.62705
2881.27529	0.61685
2879.34673	0.60666
2877.41816	0.59653
2875.48960	0.58661
2873.56104	0.57692
2871.63247	0.56726
2869.70391	0.55732
2867.77534	0.54710
2865.84678	0.53711
2863.91821	0.52744
2861.98965	0.51776
2860.06108	0.50837
2858.13252	0.49940
2856.20396	0.49053
2854.27539	0.48186
2852.34683	0.47352
2850.41826	0.46543
2848.48970	0.45775
2846.56113	0.45062
2844.63257	0.44383
2842.70400	0.43737
2840.77544	0.43147
2838.84687	0.42596
2836.91831	0.42030
2834.98975	0.41432
2833.06118	0.40843
2831.13262	0.40278
2829.20405	0.39704
2827.27549	0.39114
2825.34692	0.38526
2823.41836	0.37948
2821.48979	0.37385
2819.56123	0.36837
2817.63267	0.36286
2815.70410	0.35739
2813.77554	0.35216
2811.84697	0.34724
2809.91841	0.34243
2807.98984	0.33741
2806.06128	0.33230
2804.13271	0.32753
2802.20415	0.32296
2800.27559	0.31831
2798.34702	0.31372
2796.41846	0.30919
2794.48989	0.30469
2792.56133	0.30037
2790.63276	0.29616
2788.70420	0.29192
2786.77563	0.28781
2784.84707	0.28387
2782.91851	0.27999
2780.98994	0.27620
2779.06138	0.27253
2777.13281	0.26897
2775.20425	0.26550
2773.27568	0.26215
2771.34712	0.25879
2769.41855	0.25533
2767.48999	0.25188
2765.56143	0.24867
2763.63286	0.24575
2761.70430	0.24283
2759.77573	0.23966
2757.84717	0.23643
2755.91860	0.23343
2753.99004	0.23071
2752.06147	0.22814
2750.13291	0.22557
2748.20435	0.22294
2746.27578	0.22031
2744.34722	0.21776
2742.41865	0.21536
2740.49009	0.21300
2738.56152	0.21064
2736.63296	0.20829
2734.70439	0.20595
2732.77583	0.20373
2730.84727	0.20164
2728.91870	0.19962
2726.99014	0.19767
2725.06157	0.19570
2723.13301	0.19363
2721.20444	0.19158
2719.27588	0.18960
2717.34731	0.18775
2715.41875	0.18603
2713.49019	0.18435
2711.56162	0.18275
2709.63306	0.18122
2707.70449	0.17970
2705.77593	0.17811
2703.84736	0.17653
2701.91880	0.17499
2699.99023	0.17351
2698.06167	0.17213
2696.13311	0.17073
2694.20454	0.16933
2692.27598	0.16812
2690.34741	0.16696
2688.41885	0.16571
2686.49028	0.16449
2684.56172	0.16334
2682.63315	0.16215
2680.70459	0.16096
2678.77603	0.15994
2676.84746	0.15903
2674.91890	0.15807
2672.99033	0.15701
2671.06177	0.15600
2669.13320	0.15512
2667.20464	0.15429
2665.27607	0.15345
2663.34751	0.15266
2661.41895	0.15184
2659.49038	0.15101
2657.56182	0.15039
2655.63325	0.14988
2653.70469	0.14916
2651.77612	0.14828
2649.84756	0.14756
2647.91899	0.14714
2645.99043	0.14686
2644.06187	0.14652
2642.13330	0.14605
2640.20474	0.14550
2638.27617	0.14506
2636.34761	0.14483
2634.41904	0.14455
2632.49048	0.14410
2630.56191	0.14362
2628.63335	0.14319
2626.70479	0.14285
2624.77622	0.14263
2622.84766	0.14254
2620.91909	0.14234
2618.99053	0.14198
2617.06196	0.14162
2615.13340	0.14145
2613.20483	0.14144
2611.27627	0.14136
2609.34771	0.14123
2607.41914	0.14122
2605.49058	0.14135
2603.56201	0.14142
2601.63345	0.14138
2599.70488	0.14138
2597.77632	0.14144
2595.84775	0.14160
2593.91919	0.14183
2591.99062	0.14196
2590.06206	0.14204
2588.13350	0.14218
2586.20493	0.14245
2584.27637	0.14283
2582.34780	0.14313
2580.41924	0.14337
2578.49067	0.14365
2576.56211	0.14391
2574.63354	0.14419
2572.70498	0.14448
2570.77642	0.14475
2568.84785	0.14512
2566.91929	0.14564
2564.99072	0.14618
2563.06216	0.14661
2561.13359	0.14695
2559.20503	0.14744
2557.27646	0.14812
2555.34790	0.14870
2553.41934	0.14917
2551.49077	0.14981
2549.56221	0.15056
2547.63364	0.15117
2545.70508	0.15170
2543.77651	0.15225
2541.84795	0.15285
2539.91938	0.15350
2537.99082	0.15416
2536.06226	0.15486
2534.13369	0.15565
2532.20513	0.15644
2530.27656	0.15710
2528.34800	0.15770
2526.41943	0.15846
2524.49087	0.15929
2522.56230	0.16007
2520.63374	0.16087
2518.70518	0.16151
2516.77661	0.16190
2514.84805	0.16251
2512.91948	0.16346
2510.99092	0.16441
2509.06235	0.16523
2507.13379	0.16611
2505.20522	0.16705
2503.27666	0.16800
2501.34810	0.16890
2499.41953	0.16975
2497.49097	0.17062
2495.56240	0.17149
2493.63384	0.17235
2491.70527	0.17317
2489.77671	0.17385
2487.84814	0.17461
2485.91958	0.17564
2483.99102	0.17668
2482.06245	0.17758
2480.13389	0.17843
2478.20532	0.17930
2476.27676	0.18021
2474.34819	0.18114
2472.41963	0.18202
2470.49106	0.18289
2468.56250	0.18385
2466.63394	0.18493
2464.70537	0.18603
2462.77681	0.18708
2460.84824	0.18805
2458.91968	0.18893
2456.99111	0.18979
2455.06255	0.19073
2453.13398	0.19176
2451.20542	0.19283
2449.27686	0.19387
2447.34829	0.19479
2445.41973	0.19576
2443.49116	0.19690
2441.56260	0.19798
2439.63403	0.19890
2437.70547	0.19982
2435.77690	0.20080
2433.84834	0.20178
2431.91978	0.20279
2429.99121	0.20389
2428.06265	0.20498
2426.13408	0.20600
2424.20552	0.20699
2422.27695	0.20811
2420.34839	0.20932
2418.41982	0.21054
2416.49126	0.21171
2414.56270	0.21279
2412.63413	0.21378
2410.70557	0.21489
2408.77700	0.21620
2406.84844	0.21753
2404.91987	0.21873
2402.99131	0.21983
2401.06274	0.22096
2399.13418	0.22219
2397.20562	0.22355
2395.27705	0.22491
2393.34849	0.22605
2391.41992	0.22710
2389.49136	0.22839
2387.56279	0.23036
2385.63423	0.23319
2383.70566	0.23707
2381.77710	0.24217
2379.84854	0.24828
2377.91997	0.25509
2375.99141	0.26274
2374.06284	0.27167
2372.13428	0.28212
2370.20571	0.29388
2368.27715	0.30580
2366.34858	0.31654
2364.42002	0.32517
2362.49146	0.33096
2360.56289	0.33410
2358.63433	0.33513
2356.70576	0.33387
2354.77720	0.32873
2352.84863	0.31931
2350.92007	0.30926
2348.99150	0.30371
2347.06294	0.30438
2345.13437	0.31159
2343.20581	0.32239
2341.27725	0.32909
2339.34868	0.33050
2337.42012	0.33030
2335.49155	0.33004
2333.56299	0.32963
2331.63442	0.32957
2329.70586	0.32984
2327.77729	0.32954
2325.84873	0.32825
2323.92017	0.32602
2321.99160	0.32314
2320.06304	0.32044
2318.13447	0.31817
2316.20591	0.31618
2314.27734	0.31482
2312.34878	0.31423
2310.42021	0.31396
2308.49165	0.31337
2306.56309	0.31231
2304.63452	0.31135
2302.70596	0.31121
2300.77739	0.31178
2298.84883	0.31245
2296.92026	0.31309
2294.99170	0.31387
2293.06313	0.31465
2291.13457	0.31534
2289.20601	0.31599
2287.27744	0.31672
2285.34888	0.31757
2283.42031	0.31866
2281.49175	0.32037
2279.56318	0.32266
2277.63462	0.32508
2275.70605	0.32734
2273.77749	0.32941
2271.84893	0.33145
2269.92036	0.33352
2267.99180	0.33552
2266.06323	0.33750
2264.13467	0.33951
2262.20610	0.34143
2260.27754	0.34319
2258.34897	0.34496
2256.42041	0.34685
2254.49185	0.34883
2252.56328	0.35082
2250.63472	0.35288
2248.70615	0.35495
2246.77759	0.35690
2244.84902	0.35868
2242.92046	0.36050
2240.99189	0.36262
2239.06333	0.36502
2237.13477	0.36740
2235.20620	0.36960
2233.27764	0.37170
2231.34907	0.37383
2229.42051	0.37596
2227.49194	0.37807
2225.56338	0.38027
2223.63481	0.38259
2221.70625	0.38488
2219.77769	0.38706
2217.84912	0.38917
2215.92056	0.39126
2213.99199	0.39337
2212.06343	0.39554
2210.13486	0.39771
2208.20630	0.39980
2206.27773	0.40180
2204.34917	0.40379
2202.42061	0.40586
2200.49204	0.40799
2198.56348	0.41007
2196.63491	0.41200
2194.70635	0.41381
2192.77778	0.41563
2190.84922	0.41755
2188.92065	0.41950
2186.99209	0.42137
2185.06353	0.42313
2183.13496	0.42490
2181.20640	0.42675
2179.27783	0.42849
2177.34927	0.43006
2175.42070	0.43160
2173.49214	0.43303
2171.56357	0.43433
2169.63501	0.43577
2167.70645	0.43726
2165.77788	0.43852
2163.84932	0.43968
2161.92075	0.44086
2159.99219	0.44197
2158.06362	0.44307
2156.13506	0.44417
2154.20649	0.44505
2152.27793	0.44580
2150.34937	0.44653
2148.42080	0.44716
2146.49224	0.44772
2144.56367	0.44828
2142.63511	0.44880
2140.70654	0.44921
2138.77798	0.44960
2136.84941	0.45002
2134.92085	0.45034
2132.99229	0.45041
2131.06372	0.45029
2129.13516	0.45013
2127.20659	0.44999
2125.27803	0.44984
2123.34946	0.44952
2121.42090	0.44902
2119.49233	0.44847
2117.56377	0.44791
2115.63521	0.44726
2113.70664	0.44649
2111.77808	0.44557
2109.84951	0.44461
2107.92095	0.44377
2105.99238	0.44294
2104.06382	0.44193
2102.13525	0.44066
2100.20669	0.43921
2098.27812	0.43779
2096.34956	0.43650
2094.42100	0.43517
2092.49243	0.43362
2090.56387	0.43199
2088.63530	0.43049
2086.70674	0.42898
2084.77817	0.42722
2082.84961	0.42533
2080.92104	0.42347
2078.99248	0.42155
2077.06392	0.41957
2075.13535	0.41755
2073.20679	0.41547
2071.27822	0.41338
2069.34966	0.41131
2067.42109	0.40922
2065.49253	0.40701
2063.56396	0.40465
2061.63540	0.40229
2059.70684	0.39999
2057.77827	0.39764
2055.84971	0.39510
2053.92114	0.39242
2051.99258	0.38986
2050.06401	0.38737
2048.13545	0.38479
2046.20688	0.38216
2044.27832	0.37959
2042.34976	0.37705
2040.42119	0.37449
2038.49263	0.37183
2036.56406	0.36907
2034.63550	0.36630
2032.70693	0.36361
2030.77837	0.36101
2028.84980	0.35832
2026.92124	0.35556
2024.99268	0.35283
2023.06411	0.35014
2021.13555	0.34744
2019.20698	0.34478
2017.27842	0.34213
2015.34985	0.33937
2013.42129	0.33664
2011.49272	0.33399
2009.56416	0.33134
2007.63560	0.32870
2005.70703	0.32603
2003.77847	0.32330
2001.84990	0.32057
1999.92134	0.31798
1997.99277	0.31550
1996.06421	0.31307
1994.13564	0.31073
1992.20708	0.30839
1990.27852	0.30585
1988.34995	0.30324
1986.42139	0.30065
1984.49282	0.29813
1982.56426	0.29571
1980.63569	0.29327
1978.70713	0.29092
1976.77856	0.28876
1974.85000	0.28667
1972.92144	0.28454
1970.99287	0.28247
1969.06431	0.28061
1967.13574	0.27877
1965.20718	0.27670
1963.27861	0.27461
1961.35005	0.27261
1959.42148	0.27062
1957.49292	0.26873
1955.56436	0.26691
1953.63579	0.26504
1951.70723	0.26324
1949.77866	0.26164
1947.85010	0.26022
1945.92153	0.25888
1943.99297	0.25760
1942.06440	0.25618
1940.13584	0.25440
1938.20728	0.25263
1936.27871	0.25123
1934.35015	0.25004
1932.42158	0.24882
1930.49302	0.24757
1928.56445	0.24640
1926.63589	0.24531
1924.70732	0.24448
1922.77876	0.24379
1920.85020	0.24288
1918.92163	0.24191
1916.99307	0.24091
1915.06450	0.23975
1913.13594	0.23874
1911.20737	0.23814
1909.27881	0.23763
1907.35024	0.23691
1905.42168	0.23601
1903.49312	0.23522
1901.56455	0.23461
1899.63599	0.23416
1897.70742	0.23386
1895.77886	0.23361
1893.85029	0.23330
1891.92173	0.23292
1889.99316	0.23267
1888.06460	0.23235
1886.13604	0.23191
1884.20747	0.23162
1882.27891	0.23149
1880.35034	0.23141
1878.42178	0.23129
1876.49321	0.23121
1874.56465	0.23120
1872.63608	0.23138
1870.70752	0.23188
1868.77896	0.23267
1866.85039	0.23287
1864.92183	0.23242
1862.99326	0.23220
1861.06470	0.23237
1859.13613	0.23273
1857.20757	0.23303
1855.27900	0.23341
1853.35044	0.23390
1851.42187	0.23450
1849.49331	0.23511
1847.56475	0.23586
1845.63618	0.23690
1843.70762	0.23808
1841.77905	0.23874
1839.85049	0.23895
1837.92192	0.23953
1835.99336	0.24032
1834.06479	0.24115
1832.13623	0.24227
1830.20767	0.24408
1828.27910	0.24576
1826.35054	0.24670
1824.42197	0.24781
1822.49341	0.24892
1820.56484	0.24993
1818.63628	0.25112
1816.70771	0.25262
1814.77915	0.25425
1812.85059	0.25614
1810.92202	0.25833
1808.99346	0.26031
1807.06489	0.26203
1805.13633	0.26386
1803.20776	0.26619
1801.27920	0.26884
1799.35063	0.27163
1797.42207	0.27410
1795.49351	0.27659
1793.56494	0.27967
1791.63638	0.28347
1789.70781	0.28666
1787.77925	0.28882
1785.85068	0.29171
1783.92212	0.29542
1781.99355	0.29940
1780.06499	0.30356
1778.13643	0.30788
1776.20786	0.31199
1774.27930	0.31645
1772.35073	0.32254
1770.42217	0.32902
1768.49360	0.33416
1766.56504	0.33898
1764.63647	0.34413
1762.70791	0.35006
1760.77935	0.35746
1758.85078	0.36418
1756.92222	0.37111
1754.99365	0.37888
1753.06509	0.38600
1751.13652	0.39465
1749.20796	0.40560
1747.27939	0.41616
1745.35083	0.42523
1743.42227	0.43471
1741.49370	0.44502
1739.56514	0.45726
1737.63657	0.46977
1735.70801	0.48090
1733.77944	0.49748
1731.85088	0.51692
1729.92231	0.53196
1727.99375	0.54724
1726.06519	0.56390
1724.13662	0.58225
1722.20806	0.60215
1720.27949	0.62072
1718.35093	0.64266
1716.42236	0.67469
1714.49380	0.70453
1712.56523	0.72847
1710.63667	0.75194
1708.70811	0.77754
1706.77954	0.80677
1704.85098	0.84149
1702.92241	0.87231
1700.99385	0.90275
1699.06528	0.94785
1697.13672	0.98899
1695.20815	1.03082
1693.27959	1.07131
1691.35103	1.10407
1689.42246	1.14181
1687.49390	1.18131
1685.56533	1.21916
1683.63677	1.27731
1681.70820	1.33771
1679.77964	1.37672
1677.85107	1.41409
1675.92251	1.45693
1673.99395	1.50911
1672.06538	1.55538
1670.13682	1.60133
1668.20825	1.66034
1666.27969	1.70697
1664.35112	1.74556
1662.42256	1.79355
1660.49399	1.84737
1658.56543	1.88949
1656.63687	1.92375
1654.70830	1.95535
1652.77974	2.00786
1650.85117	2.06197
1648.92261	2.08412
1646.99404	2.11089
1645.06548	2.14149
1643.13691	2.16312
1641.20835	2.17793
1639.27979	2.19120
1637.35122	2.20058
1635.42266	2.20378
1633.49409	2.19796
1631.56553	2.18630
1629.63696	2.17210
1627.70840	2.14821
1625.77983	2.12029
1623.85127	2.08377
1621.92271	2.03662
1619.99414	1.99422
1618.06558	1.95336
1616.13701	1.89447
1614.20845	1.83303
1612.27988	1.78585
1610.35132	1.73689
1608.42275	1.68395
1606.49419	1.63169
1604.56562	1.58311
1602.63706	1.53557
1600.70850	1.48861
1598.77993	1.44560
1596.85137	1.40538
1594.92280	1.36591
1592.99424	1.32758
1591.06567	1.29241
1589.13711	1.25912
1587.20854	1.22764
1585.27998	1.19808
1583.35142	1.17031
1581.42285	1.14500
1579.49429	1.12312
1577.56572	1.10315
1575.63716	1.07822
1573.70859	1.05528
1571.78003	1.03989
1569.85146	1.02362
1567.92290	1.00484
1565.99434	0.98968
1564.06577	0.97701
1562.13721	0.96674
1560.20864	0.95861
1558.28008	0.94492
1556.35151	0.93176
1554.42295	0.92352
1552.49438	0.91530
1550.56582	0.90687
1548.63726	0.89800
1546.70869	0.88978
1544.78013	0.88167
1542.85156	0.87274
1540.92300	0.86168
1538.99443	0.84508
1537.06587	0.83240
1535.13730	0.82417
1533.20874	0.81404
1531.28018	0.80290
1529.35161	0.79471
1527.42305	0.78736
1525.49448	0.77969
1523.56592	0.77284
1521.63735	0.76581
1519.70879	0.75777
1517.78022	0.75100
1515.85166	0.74390
1513.92310	0.73649
1511.99453	0.73046
1510.06597	0.72577
1508.13740	0.72203
1506.20884	0.71493
1504.28027	0.70662
1502.35171	0.70160
1500.42314	0.69770
1498.49458	0.69381
1496.56602	0.68926
1494.63745	0.68455
1492.70889	0.68097
1490.78032	0.67825
1488.85176	0.67495
1486.92319	0.67091
1484.99463	0.66724
1483.06606	0.66432
1481.13750	0.66178
1479.20894	0.65945
1477.28037	0.65770
1475.35181	0.65647
1473.42324	0.65511
1471.49468	0.65241
1469.56611	0.64907
1467.63755	0.64642
1465.70898	0.64445
1463.78042	0.64268
1461.85186	0.64097
1459.92329	0.63983
1457.99473	0.63921
1456.06616	0.63745
1454.13760	0.63441
1452.20903	0.63174
1450.28047	0.62944
1448.35190	0.62735
1446.42334	0.62517
1444.49478	0.62305
1442.56621	0.62111
1440.63765	0.61934
1438.70908	0.61791
1436.78052	0.61630
1434.85195	0.61405
1432.92339	0.61197
1430.99482	0.61041
1429.06626	0.60907
1427.13770	0.60787
1425.20913	0.60699
1423.28057	0.60634
1421.35200	0.60575
1419.42344	0.60515
1417.49487	0.60388
1415.56631	0.60191
1413.63774	0.60017
1411.70918	0.59885
1409.78062	0.59786
1407.85205	0.59714
1405.92349	0.59656
1403.99492	0.59586
1402.06636	0.59487
1400.13779	0.59376
1398.20923	0.59251
1396.28066	0.59112
1394.35210	0.58926
1392.42354	0.58686
1390.49497	0.58472
1388.56641	0.58301
1386.63784	0.58109
1384.70928	0.57880
1382.78071	0.57674
1380.85215	0.57508
1378.92358	0.57366
1376.99502	0.57240
1375.06646	0.57138
1373.13789	0.57040
1371.20933	0.56935
1369.28076	0.56845
1367.35220	0.56748
1365.42363	0.56637
1363.49507	0.56553
1361.56650	0.56484
1359.63794	0.56377
1357.70937	0.56255
1355.78081	0.56150
1353.85225	0.56049
1351.92368	0.55949
1349.99512	0.55861
1348.06655	0.55777
1346.13799	0.55683
1344.20942	0.55588
1342.28086	0.55512
1340.35229	0.55459
1338.42373	0.55398
1336.49517	0.55303
1334.56660	0.55190
1332.63804	0.55097
1330.70947	0.55040
1328.78091	0.54994
1326.85234	0.54937
1324.92378	0.54880
1322.99521	0.54843
1321.06665	0.54831
1319.13809	0.54821
1317.20952	0.54780
1315.28096	0.54705
1313.35239	0.54625
1311.42383	0.54552
1309.49526	0.54476
1307.56670	0.54395
1305.63813	0.54308
1303.70957	0.54215
1301.78101	0.54126
1299.85244	0.54051
1297.92388	0.53986
1295.99531	0.53905
1294.06675	0.53813
1292.13818	0.53742
1290.20962	0.53682
1288.28105	0.53610
1286.35249	0.53527
1284.42393	0.53448
1282.49536	0.53374
1280.56680	0.53311
1278.63823	0.53257
1276.70967	0.53201
1274.78110	0.53143
1272.85254	0.53095
1270.92397	0.53066
1268.99541	0.53034
1267.06685	0.52981
1265.13828	0.52918
1263.20972	0.52861
1261.28115	0.52812
1259.35259	0.52777
1257.42402	0.52752
1255.49546	0.52726
1253.56689	0.52693
1251.63833	0.52663
1249.70977	0.52644
1247.78120	0.52624
1245.85264	0.52581
1243.92407	0.52531
1241.99551	0.52487
1240.06694	0.52428
1238.13838	0.52349
1236.20981	0.52261
1234.28125	0.52166
1232.35269	0.52066
1230.42412	0.51965
1228.49556	0.51877
1226.56699	0.51800
1224.63843	0.51720
1222.70986	0.51642
1220.78130	0.51561
1218.85273	0.51465
1216.92417	0.51376
1214.99561	0.51305
1213.06704	0.51236
1211.13848	0.51176
1209.20991	0.51124
1207.28135	0.51071
1205.35278	0.51016
1203.42422	0.50954
1201.49565	0.50895
1199.56709	0.50845
1197.63853	0.50797
1195.70996	0.50757
1193.78140	0.50711
1191.85283	0.50648
1189.92427	0.50592
1187.99570	0.50559
1186.06714	0.50535
1184.13857	0.50524
1182.21001	0.50528
1180.28145	0.50528
1178.35288	0.50541
1176.42432	0.50591
1174.49575	0.50658
1172.56719	0.50724
1170.63862	0.50793
1168.71006	0.50861
1166.78149	0.50916
1164.85293	0.50962
1162.92437	0.50990
1160.99580	0.50993
1159.06724	0.50971
1157.13867	0.50921
1155.21011	0.50843
1153.28154	0.50736
1151.35298	0.50595
1149.42441	0.50418
1147.49585	0.50212
1145.56729	0.49989
1143.63872	0.49765
1141.71016	0.49544
1139.78159	0.49325
1137.85303	0.49132
1135.92446	0.48977
1133.99590	0.48842
1132.06733	0.48715
1130.13877	0.48602
1128.21021	0.48496
1126.28164	0.48396
1124.35308	0.48330
1122.42451	0.48288
1120.49595	0.48246
1118.56738	0.48219
1116.63882	0.48229
1114.71025	0.48249
1112.78169	0.48246
1110.85312	0.48254
1108.92456	0.48315
1106.99600	0.48418
1105.06743	0.48542
1103.13887	0.48684
1101.21030	0.48838
1099.28174	0.49012
1097.35317	0.49232
1095.42461	0.49510
1093.49604	0.49848
1091.56748	0.50286
1089.63892	0.50847
1087.71035	0.51489
1085.78179	0.52184
1083.85322	0.52912
1081.92466	0.53605
1079.99609	0.54160
1078.06753	0.54503
1076.13896	0.54596
1074.21040	0.54384
1072.28184	0.53894
1070.35327	0.53264
1068.42471	0.52601
1066.49614	0.51947
1064.56758	0.51327
1062.63901	0.50761
1060.71045	0.50263
1058.78188	0.49822
1056.85332	0.49418
1054.92476	0.49070
1052.99619	0.48799
1051.06763	0.48574
1049.13906	0.48385
1047.21050	0.48257
1045.28193	0.48194
1043.35337	0.48171
1041.42480	0.48145
1039.49624	0.48105
1037.56768	0.48076
1035.63911	0.48051
1033.71055	0.48016
1031.78198	0.47975
1029.85342	0.47923
1027.92485	0.47872
1025.99629	0.47837
1024.06772	0.47811
1022.13916	0.47801
1020.21060	0.47820
1018.28203	0.47855
1016.35347	0.47898
1014.42490	0.47950
1012.49634	0.48015
1010.56777	0.48097
1008.63921	0.48195
1006.71064	0.48321
1004.78208	0.48484
1002.85352	0.48682
1000.92495	0.48919
998.99639	0.49214
997.06782	0.49586
995.13926	0.50008
993.21069	0.50411
991.28213	0.50747
989.35356	0.50994
987.42500	0.51130
985.49644	0.51185
983.56787	0.51223
981.63931	0.51275
979.71074	0.51368
977.78218	0.51521
975.85361	0.51743
973.92505	0.52030
971.99648	0.52348
970.06792	0.52684
968.13936	0.53061
966.21079	0.53467
964.28223	0.53877
962.35366	0.54313
960.42510	0.54798
958.49653	0.55328
956.56797	0.55890
954.63940	0.56477
952.71084	0.57078
950.78228	0.57700
948.85371	0.58346
946.92515	0.58993
944.99658	0.59621
943.06802	0.60225
941.13945	0.60810
939.21089	0.61393
937.28232	0.61975
935.35376	0.62540
933.42520	0.63120
931.49663	0.63741
929.56807	0.64307
927.63950	0.64775
925.71094	0.65278
923.78237	0.65919
921.85381	0.66640
919.92524	0.67360
917.99668	0.68050
916.06812	0.68675
914.13955	0.69271
912.21099	0.69972
910.28242	0.70772
908.35386	0.71574
906.42529	0.72423
904.49673	0.73318
902.56816	0.74145
900.63960	0.74924
898.71104	0.75801
896.78247	0.76837
894.85391	0.77935
892.92534	0.79022
890.99678	0.80073
889.06821	0.81073
887.13965	0.82062
885.21108	0.83075
883.28252	0.84171
881.35396	0.85398
879.42539	0.86703
877.49683	0.87934
875.56826	0.88978
873.63970	0.89919
871.71113	0.90920
869.78257	0.91961
867.85400	0.93009
865.92544	0.94158
863.99687	0.95390
862.06831	0.96611
860.13975	0.97813
858.21118	0.99024
856.28262	1.00163
854.35405	1.01171
852.42549	1.02188
850.49692	1.03399
848.56836	1.04768
846.63979	1.05999
844.71123	1.07050
842.78267	1.08090
840.85410	1.09025
838.92554	1.09916
836.99697	1.11042
835.06841	1.12182
833.13984	1.13022
831.21128	1.13847
829.28271	1.15027
827.35415	1.16217
825.42559	1.16848
823.49702	1.17580
821.56846	1.18871
819.63989	1.20034
817.71133	1.21282
815.78276	1.23041
813.85420	1.24655
811.92563	1.26460
809.99707	1.28443
808.06851	1.28670
806.13994	1.28778
804.21138	1.31408
802.28281	1.34286
800.35425	1.35367
798.42568	1.36422
796.49712	1.37177
794.56855	1.37718
792.63999	1.39814
790.71143	1.39679
788.78286	1.36285
786.85430	1.34726
784.92573	1.36470
782.99717	1.37082
781.06860	1.33513
779.14004	1.32350
777.21147	1.38380
775.28291	1.45078
773.35435	1.43196
771.42578	1.37850
769.49722	1.31667
767.56865	1.25617
765.64009	1.24295
763.71152	1.30623
761.78296	1.33631
759.85439	1.22315
757.92583	1.12645
755.99727	1.10273
754.06870	1.11612
752.14014	1.10682
750.21157	1.03610
748.28301	0.98702
746.35444	1.03574
744.42588	1.09640
742.49731	0.99170
740.56875	0.88544
738.64019	0.86159
736.71162	0.83961
734.78306	0.81367
732.85449	0.82072
730.92593	0.76464
728.99736	0.56200
727.06880	0.34123
725.14023	0.17149
723.21167	0.07012
721.28311	0.06686
719.35454	0.14218
717.42598	0.22266
715.49741	0.14863
713.56885	0.01192
711.64028	-0.15881
709.71172	-0.28772
707.78315	-0.20462
705.85459	-0.12319
703.92603	-0.13410
701.99746	-0.09530
700.06890	0.01876
698.14033	0.12236
696.21177	0.14873
694.28320	0.13257
692.35464	0.17822
690.42607	0.23789
688.49751	0.19304
686.56895	0.12579
684.64038	0.14566
682.71182	0.18720
680.78325	0.16356
678.85469	0.13497
676.92612	0.14137
674.99756	0.14174
673.06899	0.12768
671.14043	0.12297
669.21187	0.16169
667.28330	0.19237
665.35474	0.11910
663.42617	0.03488
661.49761	0.04520
659.56904	0.08044
657.64048	0.05461
655.71191	0.03867
653.78335	0.04201
651.85479	0.03304
649.92622	0.01948
647.99766	0.03226
646.06909	0.06068
644.14053	0.05145
642.21196	0.09269
640.28340	0.15034
638.35483	0.11446
636.42627	0.06537
634.49771	0.06125
632.56914	0.05973
630.64058	0.09935
628.71201	0.14241
626.78345	0.10631
624.85488	0.08230
622.92632	0.11355
620.99775	0.13588
619.06919	0.18203
617.14062	0.23295
615.21206	0.21208
613.28350	0.18601
611.35493	0.17002
609.42637	0.12689
607.49780	0.07101
605.56924	0.05194
603.64067	0.06515
601.71211	0.05522
599.78354	0.06494
597.85498	0.12970
595.92642	0.16202
593.99785	0.12844
592.06929	0.07174
590.14072	0.00626
588.21216	-0.00247
586.28359	0.04139
584.35503	0.06328
582.42646	0.05479
580.49790	0.06748
578.56934	0.11278
576.64077	0.15912
574.71221	0.16255
572.78364	0.10289
570.85508	0.04520
568.92651	0.06870
566.99795	0.14526
565.06938	0.19228
563.14082	0.20456
561.21226	0.20782
559.28369	0.20333
557.35513	0.18894
555.42656	0.16012
553.49800	0.12069
551.56943	0.07094
549.64087	0.02333
547.71230	0.00392
545.78374	0.02008
543.85518	0.05676
541.92661	0.07974
539.99805	0.08907
538.06948	0.10425
536.14092	0.12130
534.21235	0.11949
532.28379	0.11476
530.35522	0.12279
528.42666	0.12283
526.49810	0.13422
524.56953	0.15732
522.64097	0.13452
520.71240	0.09159
518.78384	0.08643
516.85527	0.11294
514.92671	0.15399
512.99814	0.17995
511.06958	0.17735
509.14102	0.16436
507.21245	0.15036
505.28389	0.14496
503.35532	0.12415
501.42676	0.10869
499.49819	0.12227
