3997.91411	0.06646
3995.98555	0.06673
3994.05698	0.06715
3992.12842	0.06744
3990.19985	0.06752
3988.27129	0.06758
3986.34272	0.06803
3984.41416	0.06866
3982.48560	0.06890
3980.55703	0.06900
3978.62847	0.06912
3976.69990	0.06910
3974.77134	0.06919
3972.84277	0.06960
3970.91421	0.07005
3968.98564	0.07018
3967.05708	0.07007
3965.12852	0.07002
3963.19995	0.07023
3961.27139	0.07061
3959.34282	0.07076
3957.41426	0.07060
3955.48569	0.07056
3953.55713	0.07101
3951.62856	0.07184
3949.70000	0.07249
3947.77144	0.07245
3945.84287	0.07210
3943.91431	0.07243
3941.98574	0.07291
3940.05718	0.07219
3938.12861	0.07097
3936.20005	0.07056
3934.27148	0.07127
3932.34292	0.07250
3930.41436	0.07300
3928.48579	0.07235
3926.55723	0.07182
3924.62866	0.07211
3922.70010	0.07233
3920.77153	0.07218
3918.84297	0.07253
3916.91440	0.07305
3914.98584	0.07257
3913.05728	0.07134
3911.12871	0.07045
3909.20015	0.07032
3907.27158	0.07119
3905.34302	0.07307
3903.41445	0.07514
3901.48589	0.07609
3899.55732	0.07577
3897.62876	0.07456
3895.70020	0.07306
3893.77163	0.07233
3891.84307	0.07273
3889.91450	0.07297
3887.98594	0.07241
3886.05737	0.07276
3884.12881	0.07402
3882.20024	0.07491
3880.27168	0.07546
3878.34312	0.07488
3876.41455	0.07382
3874.48599	0.07425
3872.55742	0.07571
3870.62886	0.07709
3868.70029	0.07784
3866.77173	0.07751
3864.84316	0.07753
3862.91460	0.07804
3860.98604	0.07768
3859.05747	0.07717
3857.12891	0.07778
3855.20034	0.07981
3853.27178	0.08301
3851.34321	0.08412
3849.41465	0.08164
3847.48608	0.07963
3845.55752	0.07961
3843.62896	0.08121
3841.70039	0.08316
3839.77183	0.08507
3837.84326	0.08684
3835.91470	0.08722
3833.98613	0.08651
3832.05757	0.08570
3830.12900	0.08509
3828.20044	0.08522
3826.27187	0.08617
3824.34331	0.08728
3822.41475	0.08896
3820.48618	0.09188
3818.55762	0.09349
3816.62905	0.09350
3814.70049	0.09331
3812.77192	0.09212
3810.84336	0.09112
3808.91479	0.09165
3806.98623	0.09376
3805.05767	0.09619
3803.12910	0.09842
3801.20054	0.10160
3799.27197	0.10362
3797.34341	0.10319
3795.41484	0.10266
3793.48628	0.10233
3791.55771	0.10230
3789.62915	0.10295
3787.70059	0.10428
3785.77202	0.10639
3783.84346	0.10861
3781.91489	0.11014
3779.98633	0.11175
3778.05776	0.11367
3776.12920	0.11463
3774.20063	0.11538
3772.27207	0.11727
3770.34351	0.12023
3768.41494	0.12299
3766.48638	0.12470
3764.55781	0.12638
3762.62925	0.12823
3760.70068	0.13070
3758.77212	0.13417
3756.84355	0.13698
3754.91499	0.13901
3752.98643	0.14253
3751.05786	0.14871
3749.12930	0.15467
3747.20073	0.15639
3745.27217	0.15722
3743.34360	0.16037
3741.41504	0.16416
3739.48647	0.16733
3737.55791	0.17162
3735.62935	0.17813
3733.70078	0.18551
3731.77222	0.19043
3729.84365	0.19358
3727.91509	0.19701
3725.98652	0.20193
3724.05796	0.20829
3722.12939	0.21512
3720.20083	0.22170
3718.27227	0.22762
3716.34370	0.23366
3714.41514	0.24087
3712.48657	0.25142
3710.55801	0.26727
3708.62944	0.28259
3706.70088	0.29313
3704.77231	0.30322
3702.84375	0.31586
3700.91519	0.33275
3698.98662	0.35171
3697.05806	0.36971
3695.12949	0.38861
3693.20093	0.40901
3691.27236	0.43171
3689.34380	0.46069
3687.41523	0.49444
3685.48667	0.52314
3683.55811	0.54879
3681.62954	0.57723
3679.70098	0.60910
3677.77241	0.64265
3675.84385	0.68324
3673.91528	0.73795
3671.98672	0.78188
3670.05815	0.82029
3668.12959	0.87324
3666.20103	0.92140
3664.27246	0.96130
3662.34390	1.00453
3660.41533	1.05216
3658.48677	1.09965
3656.55820	1.14982
3654.62964	1.20531
3652.70107	1.25253
3650.77251	1.29504
3648.84395	1.35381
3646.91538	1.42360
3644.98682	1.47299
3643.05825	1.51010
3641.12969	1.54865
3639.20112	1.59262
3637.27256	1.63776
3635.34399	1.68155
3633.41543	1.72492
3631.48687	1.76608
3629.55830	1.80916
3627.62974	1.86488
3625.70117	1.91523
3623.77261	1.94876
3621.84404	1.98104
3619.91548	2.01788
3617.98691	2.06225
3616.05835	2.10586
3614.12979	2.14296
3612.20122	2.18119
3610.27266	2.21905
3608.34409	2.25836
3606.41553	2.30189
3604.48696	2.34189
3602.55840	2.37676
3600.62983	2.41441
3598.70127	2.45504
3596.77271	2.49471
3594.84414	2.53621
3592.91558	2.57950
3590.98701	2.61898
3589.05845	2.65513
3587.12988	2.69860
3585.20132	2.74492
3583.27275	2.78248
3581.34419	2.81886
3579.41562	2.85938
3577.48706	2.90149
3575.55850	2.94364
3573.62993	2.98698
3571.70137	3.02802
3569.77280	3.06566
3567.84424	3.10739
3565.91567	3.16124
3563.98711	3.21206
3562.05854	3.25254
3560.12998	3.29414
3558.20142	3.33889
3556.27285	3.38374
3554.34429	3.42654
3552.41572	3.47039
3550.48716	3.51694
3548.55859	3.56384
3546.63003	3.60928
3544.70146	3.65472
3542.77290	3.70125
3540.84434	3.74777
3538.91577	3.79440
3536.98721	3.84139
3535.05864	3.88909
3533.13008	3.93392
3531.20151	3.97738
3529.27295	4.02523
3527.34438	4.07516
3525.41582	4.12202
3523.48726	4.17270
3521.55869	4.22821
3519.63013	4.27650
3517.70156	4.31981
3515.77300	4.36518
3513.84443	4.41198
3511.91587	4.45941
3509.98730	4.51000
3508.05874	4.56226
3506.13018	4.61229
3504.20161	4.66122
3502.27305	4.70844
3500.34448	4.75185
3498.41592	4.79365
3496.48735	4.83799
3494.55879	4.88517
3492.63022	4.93698
3490.70166	4.99382
3488.77310	5.04381
3486.84453	5.08368
3484.91597	5.12672
3482.98740	5.17495
3481.05884	5.22394
3479.13027	5.27385
3477.20171	5.32255
3475.27314	5.37132
3473.34458	5.42543
3471.41602	5.48009
3469.48745	5.52452
3467.55889	5.56545
3465.63032	5.61635
3463.70176	5.67668
3461.77319	5.73540
3459.84463	5.78651
3457.91606	5.83627
3455.98750	5.89485
3454.05894	5.95336
3452.13037	5.99289
3450.20181	6.02645
3448.27324	6.07703
3446.34468	6.13502
3444.41611	6.17861
3442.48755	6.21676
3440.55898	6.26103
3438.63042	6.30974
3436.70186	6.35852
3434.77329	6.40138
3432.84473	6.44497
3430.91616	6.50009
3428.98760	6.56401
3427.05903	6.62535
3425.13047	6.67085
3423.20190	6.68631
3421.27334	6.70918
3419.34478	6.78204
3417.41621	6.87312
3415.48765	6.91345
3413.55908	6.91162
3411.63052	6.95604
3409.70195	7.03403
3407.77339	7.08925
3405.84482	7.15288
3403.91626	7.22125
3401.98770	7.24701
3400.05913	7.25403
3398.13057	7.25692
3396.20200	7.27083
3394.27344	7.34386
3392.34487	7.43831
3390.41631	7.49810
3388.48774	7.52313
3386.55918	7.54944
3384.63062	7.58854
3382.70205	7.62811
3380.77349	7.67040
3378.84492	7.71254
3376.91636	7.75447
3374.98779	7.75857
3373.05923	7.70366
3371.13066	7.64315
3369.20210	7.66693
3367.27354	7.77221
3365.34497	7.85420
3363.41641	7.87591
3361.48784	7.88845
3359.55928	7.90440
3357.63071	7.92084
3355.70215	7.97372
3353.77358	8.03343
3351.84502	8.07219
3349.91646	8.10750
3347.98789	8.11637
3346.05933	8.06673
3344.13076	8.00287
3342.20220	7.94949
3340.27363	7.90596
3338.34507	7.93846
3336.41650	8.03541
3334.48794	8.15230
3332.55937	8.23959
3330.63081	8.23364
3328.70225	8.17844
3326.77368	8.12360
3324.84512	8.10468
3322.91655	8.14377
3320.98799	8.16931
3319.05942	8.14283
3317.13086	8.12851
3315.20229	8.14216
3313.27373	8.18036
3311.34517	8.18768
3309.41660	8.15960
3307.48804	8.19210
3305.55947	8.27632
3303.63091	8.33370
3301.70234	8.31258
3299.77378	8.27222
3297.84521	8.26673
3295.91665	8.24738
3293.98809	8.20327
3292.05952	8.19893
3290.13096	8.20902
3288.20239	8.16749
3286.27383	8.13486
3284.34526	8.18770
3282.41670	8.28368
3280.48813	8.30584
3278.55957	8.27323
3276.63101	8.23010
3274.70244	8.17828
3272.77388	8.13534
3270.84531	8.09878
3268.91675	8.10258
3266.98818	8.14847
3265.05962	8.22046
3263.13105	8.31938
3261.20249	8.41354
3259.27393	8.50502
3257.34536	8.55042
3255.41680	8.45155
3253.48823	8.30707
3251.55967	8.19211
3249.63110	8.10780
3247.70254	8.08226
3245.77397	8.13659
3243.84541	8.28420
3241.91685	8.33485
3239.98828	8.20749
3238.05972	8.13886
3236.13115	8.17357
3234.20259	8.21560
3232.27402	8.20155
3230.34546	8.11707
3228.41689	8.02489
3226.48833	7.96913
3224.55977	7.94734
3222.63120	7.96462
3220.70264	7.98777
3218.77407	8.00952
3216.84551	8.07574
3214.91694	8.15254
3212.98838	8.15107
3211.05981	8.04834
3209.13125	7.91402
3207.20269	7.83475
3205.27412	7.81118
3203.34556	7.77616
3201.41699	7.73877
3199.48843	7.73046
3197.55986	7.70023
3195.63130	7.63497
3193.70273	7.57903
3191.77417	7.53935
3189.84561	7.52201
3187.91704	7.54460
3185.98848	7.58469
3184.05991	7.58024
3182.13135	7.49390
3180.20278	7.36627
3178.27422	7.23938
3176.34565	7.13270
3174.41709	7.07234
3172.48853	7.02923
3170.55996	6.97193
3168.63140	6.92983
3166.70283	6.89506
3164.77427	6.84924
3162.84570	6.79576
3160.91714	6.72098
3158.98857	6.63314
3157.06001	6.54341
3155.13145	6.46071
3153.20288	6.40038
3151.27432	6.35294
3149.34575	6.29512
3147.41719	6.22651
3145.48862	6.15408
3143.56006	6.07803
3141.63149	6.01086
3139.70293	5.94375
3137.77437	5.86116
3135.84580	5.78134
3133.91724	5.71360
3131.98867	5.64601
3130.06011	5.57503
3128.13154	5.50590
3126.20298	5.44023
3124.27441	5.37230
3122.34585	5.30059
3120.41729	5.22969
3118.48872	5.15653
3116.56016	5.08134
3114.63159	5.00855
3112.70303	4.93706
3110.77446	4.86816
3108.84590	4.80191
3106.91733	4.73440
3104.98877	4.66633
3103.06021	4.59580
3101.13164	4.52039
3099.20308	4.44951
3097.27451	4.38808
3095.34595	4.33014
3093.41738	4.26910
3091.48882	4.20182
3089.56025	4.13123
3087.63169	4.06105
3085.70312	3.99391
3083.77456	3.93091
3081.84600	3.87024
3079.91743	3.80939
3077.98887	3.74749
3076.06030	3.68610
3074.13174	3.62729
3072.20317	3.57136
3070.27461	3.51615
3068.34604	3.45991
3066.41748	3.40315
3064.48892	3.34633
3062.56035	3.28930
3060.63179	3.23313
3058.70322	3.17897
3056.77466	3.12699
3054.84609	3.07503
3052.91753	3.02182
3050.98896	2.97010
3049.06040	2.91999
3047.13184	2.86985
3045.20327	2.82089
3043.27471	2.77390
3041.34614	2.72708
3039.41758	2.67919
3037.48901	2.63168
3035.56045	2.58599
3033.63188	2.54156
3031.70332	2.49730
3029.77476	2.45338
3027.84619	2.41018
3025.91763	2.36764
3023.98906	2.32579
3022.06050	2.28442
3020.13193	2.24373
3018.20337	2.20436
3016.27480	2.16599
3014.34624	2.12772
3012.41768	2.08935
3010.48911	2.05118
3008.56055	2.01412
3006.63198	1.97856
3004.70342	1.94350
3002.77485	1.90853
3000.84629	1.87421
2998.91772	1.84038
2996.98916	1.80677
2995.06060	1.77389
2993.13203	1.74153
2991.20347	1.70929
2989.27490	1.67801
2987.34634	1.64798
2985.41777	1.61824
2983.48921	1.58840
2981.56064	1.55905
2979.63208	1.53016
2977.70352	1.50128
2975.77495	1.47286
2973.84639	1.44548
2971.91782	1.41882
2969.98926	1.39248
2968.06069	1.36634
2966.13213	1.34055
2964.20356	1.31522
2962.27500	1.29032
2960.34644	1.26607
2958.41787	1.24254
2956.48931	1.21980
2954.56074	1.19785
2952.63218	1.17589
2950.70361	1.15363
2948.77505	1.13169
2946.84648	1.11033
2944.91792	1.08948
2942.98936	1.06879
2941.06079	1.04834
2939.13223	1.02870
2937.20366	1.00977
2935.27510	0.99093
2933.34653	0.97223
2931.41797	0.95388
2929.48940	0.93579
2927.56084	0.91843
2925.63228	0.90186
2923.70371	0.88526
2921.77515	0.86847
2919.84658	0.85236
2917.91802	0.83748
2915.98945	0.82306
2914.06089	0.80808
2912.13232	0.79288
2910.20376	0.77851
2908.27520	0.76480
2906.34663	0.75118
2904.41807	0.73771
2902.48950	0.72472
2900.56094	0.71227
2898.63237	0.69995
2896.70381	0.68763
2894.77524	0.67552
2892.84668	0.66357
2890.91812	0.65180
2888.98955	0.64035
2887.06099	0.62930
2885.13242	0.61866
2883.20386	0.60827
2881.27529	0.59795
2879.34673	0.58756
2877.41816	0.57724
2875.48960	0.56706
2873.56104	0.55705
2871.63247	0.54722
2869.70391	0.53741
2867.77534	0.52786
2865.84678	0.51876
2863.91821	0.50993
2861.98965	0.50105
2860.06108	0.49217
2858.13252	0.48338
2856.20396	0.47487
2854.27539	0.46700
2852.34683	0.45963
2850.41826	0.45228
2848.48970	0.44480
2846.56113	0.43746
2844.63257	0.43060
2842.70400	0.42421
2840.77544	0.41818
2838.84687	0.41230
2836.91831	0.40644
2834.98975	0.40069
2833.06118	0.39498
2831.13262	0.38932
2829.20405	0.38379
2827.27549	0.37822
2825.34692	0.37254
2823.41836	0.36678
2821.48979	0.36113
2819.56123	0.35574
2817.63267	0.35045
2815.70410	0.34519
2813.77554	0.34006
2811.84697	0.33509
2809.91841	0.33005
2807.98984	0.32488
2806.06128	0.32007
2804.13271	0.31567
2802.20415	0.31118
2800.27559	0.30658
2798.34702	0.30213
2796.41846	0.29780
2794.48989	0.29362
2792.56133	0.28961
2790.63276	0.28564
2788.70420	0.28178
2786.77563	0.27799
2784.84707	0.27410
2782.91851	0.27021
2780.98994	0.26644
2779.06138	0.26279
2777.13281	0.25931
2775.20425	0.25600
2773.27568	0.25276
2771.34712	0.24950
2769.41855	0.24623
2767.48999	0.24300
2765.56143	0.23986
2763.63286	0.23692
2761.70430	0.23404
2759.77573	0.23108
2757.84717	0.22816
2755.91860	0.22538
2753.99004	0.22271
2752.06147	0.22000
2750.13291	0.21716
2748.20435	0.21437
2746.27578	0.21183
2744.34722	0.20961
2742.41865	0.20754
2740.49009	0.20533
2738.56152	0.20300
2736.63296	0.20065
2734.70439	0.19827
2732.77583	0.19601
2730.84727	0.19407
2728.91870	0.19217
2726.99014	0.19015
2725.06157	0.18818
2723.13301	0.18625
2721.20444	0.18435
2719.27588	0.18262
2717.34731	0.18102
2715.41875	0.17944
2713.49019	0.17784
2711.56162	0.17619
2709.63306	0.17457
2707.70449	0.17306
2705.77593	0.17156
2703.84736	0.16994
2701.91880	0.16827
2699.99023	0.16678
2698.06167	0.16553
2696.13311	0.16442
2694.20454	0.16326
2692.27598	0.16198
2690.34741	0.16072
2688.41885	0.15963
2686.49028	0.15866
2684.56172	0.15760
2682.63315	0.15631
2680.70459	0.15507
2678.77603	0.15418
2676.84746	0.15338
2674.91890	0.15234
2672.99033	0.15120
2671.06177	0.15027
2669.13320	0.14957
2667.20464	0.14893
2665.27607	0.14811
2663.34751	0.14725
2661.41895	0.14660
2659.49038	0.14604
2657.56182	0.14541
2655.63325	0.14478
2653.70469	0.14423
2651.77612	0.14366
2649.84756	0.14299
2647.91899	0.14227
2645.99043	0.14169
2644.06187	0.14132
2642.13330	0.14095
2640.20474	0.14054
2638.27617	0.14038
2636.34761	0.14033
2634.41904	0.14000
2632.49048	0.13945
2630.56191	0.13900
2628.63335	0.13876
2626.70479	0.13857
2624.77622	0.13834
2622.84766	0.13819
2620.91909	0.13815
2618.99053	0.13805
2617.06196	0.13785
2615.13340	0.13760
2613.20483	0.13749
2611.27627	0.13763
2609.34771	0.13778
2607.41914	0.13779
2605.49058	0.13776
2603.56201	0.13776
2601.63345	0.13772
2599.70488	0.13759
2597.77632	0.13755
2595.84775	0.13786
2593.91919	0.13833
2591.99062	0.13856
2590.06206	0.13861
2588.13350	0.13876
2586.20493	0.13906
2584.27637	0.13940
2582.34780	0.13971
2580.41924	0.14010
2578.49067	0.14060
2576.56211	0.14109
2574.63354	0.14151
2572.70498	0.14183
2570.77642	0.14210
2568.84785	0.14231
2566.91929	0.14261
2564.99072	0.14318
2563.06216	0.14390
2561.13359	0.14450
2559.20503	0.14496
2557.27646	0.14539
2555.34790	0.14594
2553.41934	0.14665
2551.49077	0.14725
2549.56221	0.14768
2547.63364	0.14823
2545.70508	0.14898
2543.77651	0.14961
2541.84795	0.15014
2539.91938	0.15085
2537.99082	0.15169
2536.06226	0.15255
2534.13369	0.15337
2532.20513	0.15407
2530.27656	0.15479
2528.34800	0.15561
2526.41943	0.15639
2524.49087	0.15704
2522.56230	0.15769
2520.63374	0.15854
2518.70518	0.15953
2516.77661	0.16047
2514.84805	0.16125
2512.91948	0.16195
2510.99092	0.16270
2509.06235	0.16353
2507.13379	0.16445
2505.20522	0.16539
2503.27666	0.16629
2501.34810	0.16720
2499.41953	0.16812
2497.49097	0.16891
2495.56240	0.16963
2493.63384	0.17051
2491.70527	0.17145
2489.77671	0.17228
2487.84814	0.17310
2485.91958	0.17399
2483.99102	0.17495
2482.06245	0.17600
2480.13389	0.17708
2478.20532	0.17809
2476.27676	0.17898
2474.34819	0.17986
2472.41963	0.18082
2470.49106	0.18187
2468.56250	0.18296
2466.63394	0.18395
2464.70537	0.18483
2462.77681	0.18570
2460.84824	0.18666
2458.91968	0.18769
2456.99111	0.18866
2455.06255	0.18963
2453.13398	0.19076
2451.20542	0.19195
2449.27686	0.19304
2447.34829	0.19405
2445.41973	0.19505
2443.49116	0.19606
2441.56260	0.19707
2439.63403	0.19814
2437.70547	0.19915
2435.77690	0.20012
2433.84834	0.20121
2431.91978	0.20234
2429.99121	0.20342
2428.06265	0.20453
2426.13408	0.20568
2424.20552	0.20686
2422.27695	0.20811
2420.34839	0.20935
2418.41982	0.21042
2416.49126	0.21144
2414.56270	0.21256
2412.63413	0.21363
2410.70557	0.21468
2408.77700	0.21586
2406.84844	0.21710
2404.91987	0.21837
2402.99131	0.21959
2401.06274	0.22074
2399.13418	0.22195
2397.20562	0.22323
2395.27705	0.22444
2393.34849	0.22562
2391.41992	0.22701
2389.49136	0.22861
2387.56279	0.23047
2385.63423	0.23284
2383.70566	0.23596
2381.77710	0.24003
2379.84854	0.24504
2377.91997	0.25072
2375.99141	0.25700
2374.06284	0.26430
2372.13428	0.27278
2370.20571	0.28163
2368.27715	0.29005
2366.34858	0.29828
2364.42002	0.30577
2362.49146	0.31162
2360.56289	0.31618
2358.63433	0.31850
2356.70576	0.31673
2354.77720	0.31124
2352.84863	0.30413
2350.92007	0.29702
2348.99150	0.29301
2347.06294	0.29426
2345.13437	0.30144
2343.20581	0.31130
2341.27725	0.31668
2339.34868	0.31708
2337.42012	0.31623
2335.49155	0.31598
2333.56299	0.31609
2331.63442	0.31638
2329.70586	0.31699
2327.77729	0.31785
2325.84873	0.31775
2323.92017	0.31593
2321.99160	0.31393
2320.06304	0.31264
2318.13447	0.31106
2316.20591	0.30929
2314.27734	0.30843
2312.34878	0.30859
2310.42021	0.30903
2308.49165	0.30899
2306.56309	0.30850
2304.63452	0.30820
2302.70596	0.30845
2300.77739	0.30926
2298.84883	0.31030
2296.92026	0.31116
2294.99170	0.31187
2293.06313	0.31277
2291.13457	0.31390
2289.20601	0.31501
2287.27744	0.31597
2285.34888	0.31696
2283.42031	0.31837
2281.49175	0.32037
2279.56318	0.32259
2277.63462	0.32474
2275.70605	0.32691
2273.77749	0.32903
2271.84893	0.33106
2269.92036	0.33313
2267.99180	0.33525
2266.06323	0.33734
2264.13467	0.33943
2262.20610	0.34146
2260.27754	0.34341
2258.34897	0.34531
2256.42041	0.34715
2254.49185	0.34900
2252.56328	0.35093
2250.63472	0.35299
2248.70615	0.35516
2246.77759	0.35742
2244.84902	0.35967
2242.92046	0.36179
2240.99189	0.36381
2239.06333	0.36590
2237.13477	0.36807
2235.20620	0.37021
2233.27764	0.37227
2231.34907	0.37436
2229.42051	0.37655
2227.49194	0.37881
2225.56338	0.38110
2223.63481	0.38329
2221.70625	0.38537
2219.77769	0.38764
2217.84912	0.38992
2215.92056	0.39200
2213.99199	0.39412
2212.06343	0.39632
2210.13486	0.39850
2208.20630	0.40063
2206.27773	0.40265
2204.34917	0.40461
2202.42061	0.40663
2200.49204	0.40874
2198.56348	0.41084
2196.63491	0.41275
2194.70635	0.41459
2192.77778	0.41659
2190.84922	0.41863
2188.92065	0.42051
2186.99209	0.42239
2185.06353	0.42431
2183.13496	0.42598
2181.20640	0.42742
2179.27783	0.42891
2177.34927	0.43061
2175.42070	0.43242
2173.49214	0.43407
2171.56357	0.43550
2169.63501	0.43681
2167.70645	0.43808
2165.77788	0.43935
2163.84932	0.44072
2161.92075	0.44210
2159.99219	0.44326
2158.06362	0.44429
2156.13506	0.44534
2154.20649	0.44629
2152.27793	0.44714
2150.34937	0.44794
2148.42080	0.44860
2146.49224	0.44916
2144.56367	0.44969
2142.63511	0.45015
2140.70654	0.45054
2138.77798	0.45084
2136.84941	0.45101
2134.92085	0.45118
2132.99229	0.45128
2131.06372	0.45126
2129.13516	0.45124
2127.20659	0.45115
2125.27803	0.45092
2123.34946	0.45066
2121.42090	0.45029
2119.49233	0.44967
2117.56377	0.44899
2115.63521	0.44837
2113.70664	0.44775
2111.77808	0.44704
2109.84951	0.44620
2107.92095	0.44526
2105.99238	0.44425
2104.06382	0.44317
2102.13525	0.44196
2100.20669	0.44071
2098.27812	0.43948
2096.34956	0.43815
2094.42100	0.43662
2092.49243	0.43495
2090.56387	0.43325
2088.63530	0.43157
2086.70674	0.42996
2084.77817	0.42825
2082.84961	0.42636
2080.92104	0.42442
2078.99248	0.42253
2077.06392	0.42067
2075.13535	0.41873
2073.20679	0.41670
2071.27822	0.41465
2069.34966	0.41252
2067.42109	0.41030
2065.49253	0.40813
2063.56396	0.40582
2061.63540	0.40332
2059.70684	0.40080
2057.77827	0.39826
2055.84971	0.39570
2053.92114	0.39321
2051.99258	0.39079
2050.06401	0.38832
2048.13545	0.38579
2046.20688	0.38323
2044.27832	0.38069
2042.34976	0.37814
2040.42119	0.37551
2038.49263	0.37278
2036.56406	0.36999
2034.63550	0.36728
2032.70693	0.36470
2030.77837	0.36207
2028.84980	0.35928
2026.92124	0.35652
2024.99268	0.35383
2023.06411	0.35116
2021.13555	0.34847
2019.20698	0.34576
2017.27842	0.34305
2015.34985	0.34027
2013.42129	0.33749
2011.49272	0.33487
2009.56416	0.33233
2007.63560	0.32968
2005.70703	0.32698
2003.77847	0.32430
2001.84990	0.32162
1999.92134	0.31896
1997.99277	0.31632
1996.06421	0.31377
1994.13564	0.31147
1992.20708	0.30927
1990.27852	0.30670
1988.34995	0.30396
1986.42139	0.30140
1984.49282	0.29904
1982.56426	0.29673
1980.63569	0.29436
1978.70713	0.29196
1976.77856	0.28961
1974.85000	0.28742
1972.92144	0.28527
1970.99287	0.28311
1969.06431	0.28118
1967.13574	0.27944
1965.20718	0.27747
1963.27861	0.27533
1961.35005	0.27326
1959.42148	0.27128
1957.49292	0.26936
1955.56436	0.26748
1953.63579	0.26569
1951.70723	0.26396
1949.77866	0.26231
1947.85010	0.26080
1945.92153	0.25942
1943.99297	0.25819
1942.06440	0.25693
1940.13584	0.25522
1938.20728	0.25345
1936.27871	0.25203
1934.35015	0.25076
1932.42158	0.24952
1930.49302	0.24827
1928.56445	0.24707
1926.63589	0.24600
1924.70732	0.24520
1922.77876	0.24446
1920.85020	0.24350
1918.92163	0.24255
1916.99307	0.24161
1915.06450	0.24043
1913.13594	0.23930
1911.20737	0.23853
1909.27881	0.23797
1907.35024	0.23738
1905.42168	0.23662
1903.49312	0.23588
1901.56455	0.23529
1899.63599	0.23481
1897.70742	0.23448
1895.77886	0.23420
1893.85029	0.23378
1891.92173	0.23328
1889.99316	0.23312
1888.06460	0.23298
1886.13604	0.23262
1884.20747	0.23231
1882.27891	0.23206
1880.35034	0.23187
1878.42178	0.23175
1876.49321	0.23167
1874.56465	0.23164
1872.63608	0.23185
1870.70752	0.23246
1868.77896	0.23346
1866.85039	0.23381
1864.92183	0.23323
1862.99326	0.23281
1861.06470	0.23292
1859.13613	0.23332
1857.20757	0.23364
1855.27900	0.23398
1853.35044	0.23442
1851.42187	0.23497
1849.49331	0.23569
1847.56475	0.23669
1845.63618	0.23799
1843.70762	0.23918
1841.77905	0.23946
1839.85049	0.23942
1837.92192	0.24009
1835.99336	0.24109
1834.06479	0.24204
1832.13623	0.24315
1830.20767	0.24489
1828.27910	0.24653
1826.35054	0.24747
1824.42197	0.24856
1822.49341	0.24957
1820.56484	0.25052
1818.63628	0.25179
1816.70771	0.25338
1814.77915	0.25496
1812.85059	0.25682
1810.92202	0.25908
1808.99346	0.26114
1807.06489	0.26285
1805.13633	0.26464
1803.20776	0.26704
1801.27920	0.26992
1799.35063	0.27281
1797.42207	0.27517
1795.49351	0.27753
1793.56494	0.28055
1791.63638	0.28439
1789.70781	0.28755
1787.77925	0.28966
1785.85068	0.29255
1783.92212	0.29635
1781.99355	0.30049
1780.06499	0.30474
1778.13643	0.30895
1776.20786	0.31297
1774.27930	0.31765
1772.35073	0.32411
1770.42217	0.33047
1768.49360	0.33518
1766.56504	0.33976
1764.63647	0.34482
1762.70791	0.35080
1760.77935	0.35851
1758.85078	0.36566
1756.92222	0.37276
1754.99365	0.38037
1753.06509	0.38741
1751.13652	0.39631
1749.20796	0.40764
1747.27939	0.41828
1745.35083	0.42718
1743.42227	0.43652
1741.49370	0.44699
1739.56514	0.45945
1737.63657	0.47188
1735.70801	0.48298
1733.77944	0.49990
1731.85088	0.51949
1729.92231	0.53440
1727.99375	0.54955
1726.06519	0.56614
1724.13662	0.58449
1722.20806	0.60438
1720.27949	0.62293
1718.35093	0.64493
1716.42236	0.67707
1714.49380	0.70688
1712.56523	0.73075
1710.63667	0.75415
1708.70811	0.77970
1706.77954	0.80907
1704.85098	0.84387
1702.92241	0.87441
1700.99385	0.90423
1699.06528	0.94834
1697.13672	0.98875
1695.20815	1.02989
1693.27959	1.06929
1691.35103	1.10075
1689.42246	1.13691
1687.49390	1.17477
1685.56533	1.21138
1683.63677	1.26781
1681.70820	1.32555
1679.77964	1.36252
1677.85107	1.39805
1675.92251	1.43867
1673.99395	1.48813
1672.06538	1.53159
1670.13682	1.57398
1668.20825	1.62793
1666.27969	1.67042
1664.35112	1.70597
1662.42256	1.75022
1660.49399	1.79920
1658.56543	1.83746
1656.63687	1.86962
1654.70830	1.90167
1652.77974	1.95522
1650.85117	2.00595
1648.92261	2.02613
1646.99404	2.05425
1645.06548	2.08814
1643.13691	2.11140
1641.20835	2.12784
1639.27979	2.14288
1637.35122	2.15230
1635.42266	2.15413
1633.49409	2.14922
1631.56553	2.13924
1629.63696	2.12650
1627.70840	2.10408
1625.77983	2.07593
1623.85127	2.03984
1621.92271	1.99666
1619.99414	1.95842
1618.06558	1.92031
1616.13701	1.86372
1614.20845	1.80356
1612.27988	1.75758
1610.35132	1.71026
1608.42275	1.65847
1606.49419	1.60675
1604.56562	1.55839
1602.63706	1.51096
1600.70850	1.46422
1598.77993	1.42102
1596.85137	1.38050
1594.92280	1.34115
1592.99424	1.30280
1591.06567	1.26752
1589.13711	1.23417
1587.20854	1.20233
1585.27998	1.17238
1583.35142	1.14386
1581.42285	1.11714
1579.49429	1.09396
1577.56572	1.07293
1575.63716	1.04656
1573.70859	1.02244
1571.78003	1.00648
1569.85146	0.98929
1567.92290	0.96868
1565.99434	0.95160
1564.06577	0.93703
1562.13721	0.92501
1560.20864	0.91522
1558.28008	0.89737
1556.35151	0.87919
1554.42295	0.86767
1552.49438	0.85670
1550.56582	0.84612
1548.63726	0.83551
1546.70869	0.82663
1544.78013	0.81929
1542.85156	0.81198
1540.92300	0.80366
1538.99443	0.79163
1537.06587	0.78183
1535.13730	0.77548
1533.20874	0.76830
1531.28018	0.76031
1529.35161	0.75417
1527.42305	0.74865
1525.49448	0.74312
1523.56592	0.73834
1521.63735	0.73321
1519.70879	0.72667
1517.78022	0.72082
1515.85166	0.71509
1513.92310	0.70953
1511.99453	0.70522
1510.06597	0.70199
1508.13740	0.69938
1506.20884	0.69412
1504.28027	0.68773
1502.35171	0.68366
1500.42314	0.68053
1498.49458	0.67777
1496.56602	0.67450
1494.63745	0.67050
1492.70889	0.66724
1490.78032	0.66493
1488.85176	0.66207
1486.92319	0.65815
1484.99463	0.65451
1483.06606	0.65165
1481.13750	0.64910
1479.20894	0.64660
1477.28037	0.64439
1475.35181	0.64241
1473.42324	0.64012
1471.49468	0.63638
1469.56611	0.63244
1467.63755	0.62962
1465.70898	0.62742
1463.78042	0.62499
1461.85186	0.62260
1459.92329	0.62113
1457.99473	0.62021
1456.06616	0.61791
1454.13760	0.61459
1452.20903	0.61213
1450.28047	0.61028
1448.35190	0.60865
1446.42334	0.60686
1444.49478	0.60509
1442.56621	0.60351
1440.63765	0.60207
1438.70908	0.60103
1436.78052	0.60021
1434.85195	0.59874
1432.92339	0.59691
1430.99482	0.59538
1429.06626	0.59378
1427.13770	0.59205
1425.20913	0.59070
1423.28057	0.58950
1421.35200	0.58822
1419.42344	0.58710
1417.49487	0.58570
1415.56631	0.58366
1413.63774	0.58175
1411.70918	0.58025
1409.78062	0.57893
1407.85205	0.57772
1405.92349	0.57670
1403.99492	0.57551
1402.06636	0.57408
1400.13779	0.57298
1398.20923	0.57213
1396.28066	0.57109
1394.35210	0.56962
1392.42354	0.56782
1390.49497	0.56627
1388.56641	0.56517
1386.63784	0.56408
1384.70928	0.56264
1382.78071	0.56130
1380.85215	0.56035
1378.92358	0.55964
1376.99502	0.55896
1375.06646	0.55837
1373.13789	0.55748
1371.20933	0.55615
1369.28076	0.55489
1367.35220	0.55385
1365.42363	0.55304
1363.49507	0.55247
1361.56650	0.55166
1359.63794	0.55042
1357.70937	0.54945
1355.78081	0.54874
1353.85225	0.54786
1351.92368	0.54683
1349.99512	0.54588
1348.06655	0.54503
1346.13799	0.54430
1344.20942	0.54360
1342.28086	0.54297
1340.35229	0.54263
1338.42373	0.54201
1336.49517	0.54067
1334.56660	0.53932
1332.63804	0.53833
1330.70947	0.53750
1328.78091	0.53677
1326.85234	0.53616
1324.92378	0.53547
1322.99521	0.53475
1321.06665	0.53414
1319.13809	0.53361
1317.20952	0.53292
1315.28096	0.53202
1313.35239	0.53102
1311.42383	0.53008
1309.49526	0.52937
1307.56670	0.52880
1305.63813	0.52822
1303.70957	0.52755
1301.78101	0.52687
1299.85244	0.52624
1297.92388	0.52557
1295.99531	0.52481
1294.06675	0.52415
1292.13818	0.52359
1290.20962	0.52296
1288.28105	0.52225
1286.35249	0.52165
1284.42393	0.52128
1282.49536	0.52106
1280.56680	0.52079
1278.63823	0.52038
1276.70967	0.51992
1274.78110	0.51940
1272.85254	0.51891
1270.92397	0.51858
1268.99541	0.51827
1267.06685	0.51782
1265.13828	0.51741
1263.20972	0.51698
1261.28115	0.51644
1259.35259	0.51599
1257.42402	0.51565
1255.49546	0.51543
1253.56689	0.51541
1251.63833	0.51541
1249.70977	0.51514
1247.78120	0.51473
1245.85264	0.51452
1243.92407	0.51435
1241.99551	0.51404
1240.06694	0.51365
1238.13838	0.51320
1236.20981	0.51269
1234.28125	0.51212
1232.35269	0.51147
1230.42412	0.51080
1228.49556	0.51023
1226.56699	0.50974
1224.63843	0.50925
1222.70986	0.50872
1220.78130	0.50818
1218.85273	0.50762
1216.92417	0.50705
1214.99561	0.50648
1213.06704	0.50593
1211.13848	0.50530
1209.20991	0.50459
1207.28135	0.50391
1205.35278	0.50332
1203.42422	0.50275
1201.49565	0.50218
1199.56709	0.50170
1197.63853	0.50138
1195.70996	0.50105
1193.78140	0.50062
1191.85283	0.50019
1189.92427	0.49989
1187.99570	0.49965
1186.06714	0.49944
1184.13857	0.49928
1182.21001	0.49922
1180.28145	0.49931
1178.35288	0.49961
1176.42432	0.50001
1174.49575	0.50034
1172.56719	0.50064
1170.63862	0.50096
1168.71006	0.50122
1166.78149	0.50134
1164.85293	0.50141
1162.92437	0.50155
1160.99580	0.50162
1159.06724	0.50143
1157.13867	0.50095
1155.21011	0.50021
1153.28154	0.49922
1151.35298	0.49785
1149.42441	0.49607
1147.49585	0.49407
1145.56729	0.49206
1143.63872	0.48997
1141.71016	0.48776
1139.78159	0.48561
1137.85303	0.48361
1135.92446	0.48164
1133.99590	0.47965
1132.06733	0.47780
1130.13877	0.47618
1128.21021	0.47475
1126.28164	0.47337
1124.35308	0.47207
1122.42451	0.47097
1120.49595	0.47019
1118.56738	0.46978
1116.63882	0.46953
1114.71025	0.46942
1112.78169	0.46972
1110.85312	0.47024
1108.92456	0.47079
1106.99600	0.47162
1105.06743	0.47278
1103.13887	0.47415
1101.21030	0.47595
1099.28174	0.47831
1097.35317	0.48109
1095.42461	0.48428
1093.49604	0.48789
1091.56748	0.49184
1089.63892	0.49627
1087.71035	0.50156
1085.78179	0.50770
1083.85322	0.51421
1081.92466	0.52049
1079.99609	0.52598
1078.06753	0.52994
1076.13896	0.53145
1074.21040	0.53002
1072.28184	0.52605
1070.35327	0.52029
1068.42471	0.51356
1066.49614	0.50683
1064.56758	0.50085
1062.63901	0.49560
1060.71045	0.49067
1058.78188	0.48607
1056.85332	0.48201
1054.92476	0.47863
1052.99619	0.47587
1051.06763	0.47355
1049.13906	0.47157
1047.21050	0.46977
1045.28193	0.46806
1043.35337	0.46665
1041.42480	0.46566
1039.49624	0.46494
1037.56768	0.46440
1035.63911	0.46418
1033.71055	0.46435
1031.78198	0.46452
1029.85342	0.46449
1027.92485	0.46459
1025.99629	0.46510
1024.06772	0.46586
1022.13916	0.46648
1020.21060	0.46704
1018.28203	0.46792
1016.35347	0.46909
1014.42490	0.47037
1012.49634	0.47175
1010.56777	0.47332
1008.63921	0.47505
1006.71064	0.47678
1004.78208	0.47858
1002.85352	0.48082
1000.92495	0.48369
998.99639	0.48695
997.06782	0.49030
995.13926	0.49370
993.21069	0.49729
991.28213	0.50073
989.35356	0.50347
987.42500	0.50526
985.49644	0.50632
983.56787	0.50719
981.63931	0.50834
979.71074	0.50996
977.78218	0.51211
975.85361	0.51471
973.92505	0.51750
971.99648	0.52045
970.06792	0.52378
968.13936	0.52754
966.21079	0.53156
964.28223	0.53581
962.35366	0.54042
960.42510	0.54544
958.49653	0.55076
956.56797	0.55620
954.63940	0.56171
952.71084	0.56757
950.78228	0.57380
948.85371	0.58017
946.92515	0.58660
944.99658	0.59278
943.06802	0.59869
941.13945	0.60486
939.21089	0.61135
937.28232	0.61780
935.35376	0.62372
933.42520	0.62887
931.49663	0.63343
929.56807	0.63782
927.63950	0.64292
925.71094	0.64887
923.78237	0.65500
921.85381	0.66144
919.92524	0.66831
917.99668	0.67552
916.06812	0.68299
914.13955	0.69010
912.21099	0.69700
910.28242	0.70493
908.35386	0.71372
906.42529	0.72253
904.49673	0.73135
902.56816	0.73977
900.63960	0.74761
898.71104	0.75613
896.78247	0.76639
894.85391	0.77747
892.92534	0.78823
890.99678	0.79810
889.06821	0.80725
887.13965	0.81732
885.21108	0.82867
883.28252	0.84038
881.35396	0.85227
879.42539	0.86377
877.49683	0.87479
875.56826	0.88602
873.63970	0.89728
871.71113	0.90788
869.78257	0.91826
867.85400	0.92923
865.92544	0.94010
863.99687	0.95091
862.06831	0.96279
860.13975	0.97603
858.21118	0.98967
856.28262	1.00145
854.35405	1.01094
852.42549	1.02036
850.49692	1.03149
848.56836	1.04336
846.63979	1.05415
844.71123	1.06508
842.78267	1.07728
840.85410	1.08919
838.92554	1.09921
836.99697	1.10791
835.06841	1.11753
833.13984	1.12959
831.21128	1.14290
829.28271	1.15434
827.35415	1.16445
825.42559	1.17610
823.49702	1.18642
821.56846	1.19265
819.63989	1.20251
817.71133	1.22120
815.78276	1.23810
813.85420	1.23944
811.92563	1.23621
809.99707	1.24856
808.06851	1.26903
806.13994	1.28700
804.21138	1.31001
802.28281	1.33177
800.35425	1.33987
798.42568	1.35818
796.49712	1.39680
794.56855	1.41335
792.63999	1.40386
790.71143	1.38261
788.78286	1.36987
786.85430	1.40309
784.92573	1.44857
782.99717	1.44904
781.06860	1.41048
779.14004	1.35327
777.21147	1.31587
775.28291	1.33733
773.35435	1.39078
771.42578	1.36706
769.49722	1.30622
767.56865	1.33192
765.64009	1.37057
763.71152	1.32869
761.78296	1.39023
759.85439	1.54691
757.92583	1.38121
755.99727	1.22419
754.06870	1.18450
752.14014	1.15141
750.21157	1.16150
748.28301	1.32720
746.35444	1.67688
744.42588	1.54355
742.49731	1.27928
740.56875	1.12978
738.64019	1.04855
736.71162	1.01004
734.78306	0.96176
732.85449	0.91683
730.92593	0.81166
728.99736	0.62814
727.06880	0.50701
725.14023	0.43852
723.21167	0.38368
721.28311	0.37237
719.35454	0.42692
717.42598	0.47950
715.49741	0.45124
713.56885	0.28338
711.64028	0.15337
709.71172	0.07087
707.78315	-0.27176
705.85459	-0.27102
703.92603	-0.28628
701.99746	0.07639
700.06890	0.16048
698.14033	0.14203
696.21177	0.27558
694.28320	0.51088
692.35464	0.44019
690.42607	0.28879
688.49751	0.24795
686.56895	0.31417
684.64038	0.32529
682.71182	0.21510
680.78325	0.18549
678.85469	0.23374
676.92612	0.27329
674.99756	0.36816
673.06899	0.62772
671.14043	0.80518
669.21187	0.50985
667.28330	0.54517
665.35474	0.77564
663.42617	1.01265
661.49761	0.94444
659.56904	3.95741
657.64048	3.94584
655.71191	3.93427
653.78335	0.88123
651.85479	0.53647
649.92622	0.30495
647.99766	0.19061
646.06909	0.17508
644.14053	0.24263
642.21196	0.28432
640.28340	0.23573
638.35483	0.21403
636.42627	0.24763
634.49771	0.28585
632.56914	0.30593
630.64058	0.34104
628.71201	0.30163
626.78345	0.25406
624.85488	0.22998
622.92632	0.26078
620.99775	0.38976
619.06919	0.52869
617.14062	0.44204
615.21206	0.27815
613.28350	0.17273
611.35493	0.12035
609.42637	0.09984
607.49780	0.08521
605.56924	0.08905
603.64067	0.15084
601.71211	0.21732
599.78354	0.23975
597.85498	0.25868
595.92642	0.33485
593.99785	0.44604
592.06929	0.41973
590.14072	0.38446
588.21216	0.34626
586.28359	0.21615
584.35503	0.10804
582.42646	0.19248
580.49790	0.50574
578.56934	0.64696
576.64077	0.40648
574.71221	0.36392
572.78364	0.40650
570.85508	0.44632
568.92651	0.41960
566.99795	0.30026
565.06938	0.19024
563.14082	0.15019
561.21226	0.21182
559.28369	0.32295
557.35513	0.31350
555.42656	0.28514
553.49800	0.32670
551.56943	0.33254
549.64087	0.24498
547.71230	0.18756
545.78374	0.22789
543.85518	0.30930
541.92661	0.34050
539.99805	0.33645
538.06948	0.30493
536.14092	0.28593
534.21235	0.34537
532.28379	0.45421
530.35522	0.43365
528.42666	0.26344
526.49810	0.15041
524.56953	0.18734
522.64097	0.25841
520.71240	0.22729
518.78384	0.15684
516.85527	0.14390
514.92671	0.22873
512.99814	0.32213
511.06958	0.27442
509.14102	0.22094
507.21245	0.24266
505.28389	0.28997
503.35532	0.27032
501.42676	0.21730
499.49819	0.17182
