3997.91411	0.06364
3995.98555	0.06391
3994.05698	0.06428
3992.12842	0.06457
3990.19985	0.06460
3988.27129	0.06476
3986.34272	0.06525
3984.41416	0.06566
3982.48560	0.06583
3980.55703	0.06601
3978.62847	0.06633
3976.69990	0.06682
3974.77134	0.06743
3972.84277	0.06779
3970.91421	0.06766
3968.98564	0.06735
3967.05708	0.06715
3965.12852	0.06713
3963.19995	0.06745
3961.27139	0.06795
3959.34282	0.06821
3957.41426	0.06825
3955.48569	0.06821
3953.55713	0.06812
3951.62856	0.06831
3949.70000	0.06905
3947.77144	0.06989
3945.84287	0.06993
3943.91431	0.06929
3941.98574	0.06898
3940.05718	0.06891
3938.12861	0.06840
3936.20005	0.06799
3934.27148	0.06849
3932.34292	0.06948
3930.41436	0.07003
3928.48579	0.06995
3926.55723	0.06974
3924.62866	0.06982
3922.70010	0.06973
3920.77153	0.06930
3918.84297	0.06928
3916.91440	0.06969
3914.98584	0.06944
3913.05728	0.06824
3911.12871	0.06713
3909.20015	0.06686
3907.27158	0.06765
3905.34302	0.06965
3903.41445	0.07244
3901.48589	0.07412
3899.55732	0.07363
3897.62876	0.07161
3895.70020	0.06940
3893.77163	0.06865
3891.84307	0.06946
3889.91450	0.07008
3887.98594	0.06977
3886.05737	0.07018
3884.12881	0.07120
3882.20024	0.07151
3880.27168	0.07155
3878.34312	0.07118
3876.41455	0.07050
3874.48599	0.07072
3872.55742	0.07169
3870.62886	0.07266
3868.70029	0.07352
3866.77173	0.07389
3864.84316	0.07422
3862.91460	0.07448
3860.98604	0.07377
3859.05747	0.07299
3857.12891	0.07327
3855.20034	0.07454
3853.27178	0.07689
3851.34321	0.07882
3849.41465	0.07785
3847.48608	0.07640
3845.55752	0.07621
3843.62896	0.07736
3841.70039	0.07910
3839.77183	0.08072
3837.84326	0.08212
3835.91470	0.08277
3833.98613	0.08242
3832.05757	0.08203
3830.12900	0.08217
3828.20044	0.08256
3826.27187	0.08313
3824.34331	0.08390
3822.41475	0.08542
3820.48618	0.08792
3818.55762	0.08887
3816.62905	0.08858
3814.70049	0.08876
3812.77192	0.08837
3810.84336	0.08804
3808.91479	0.08918
3806.98623	0.09185
3805.05767	0.09414
3803.12910	0.09534
3801.20054	0.09755
3799.27197	0.09972
3797.34341	0.09973
3795.41484	0.09891
3793.48628	0.09797
3791.55771	0.09787
3789.62915	0.09900
3787.70059	0.10072
3785.77202	0.10290
3783.84346	0.10537
3781.91489	0.10728
3779.98633	0.10889
3778.05776	0.11039
3776.12920	0.11113
3774.20063	0.11194
3772.27207	0.11374
3770.34351	0.11661
3768.41494	0.11957
3766.48638	0.12143
3764.55781	0.12326
3762.62925	0.12523
3760.70068	0.12724
3758.77212	0.12993
3756.84355	0.13258
3754.91499	0.13476
3752.98643	0.13787
3751.05786	0.14298
3749.12930	0.14805
3747.20073	0.15015
3745.27217	0.15194
3743.34360	0.15593
3741.41504	0.15984
3739.48647	0.16239
3737.55791	0.16599
3735.62935	0.17245
3733.70078	0.18008
3731.77222	0.18456
3729.84365	0.18734
3727.91509	0.19105
3725.98652	0.19669
3724.05796	0.20361
3722.12939	0.21035
3720.20083	0.21661
3718.27227	0.22240
3716.34370	0.22837
3714.41514	0.23568
3712.48657	0.24633
3710.55801	0.26159
3708.62944	0.27627
3706.70088	0.28678
3704.77231	0.29687
3702.84375	0.30956
3700.91519	0.32634
3698.98662	0.34452
3697.05806	0.36166
3695.12949	0.38007
3693.20093	0.40001
3691.27236	0.42218
3689.34380	0.45091
3687.41523	0.48489
3685.48667	0.51394
3683.55811	0.53937
3681.62954	0.56723
3679.70098	0.59912
3677.77241	0.63311
3675.84385	0.67312
3673.91528	0.72627
3671.98672	0.76981
3670.05815	0.80900
3668.12959	0.86213
3666.20103	0.90921
3664.27246	0.94830
3662.34390	0.99128
3660.41533	1.03851
3658.48677	1.08535
3656.55820	1.13546
3654.62964	1.19169
3652.70107	1.23866
3650.77251	1.27908
3648.84395	1.33544
3646.91538	1.40466
3644.98682	1.45421
3643.05825	1.49226
3641.12969	1.53231
3639.20112	1.57720
3637.27256	1.62243
3635.34399	1.66585
3633.41543	1.70894
3631.48687	1.74968
3629.55830	1.79195
3627.62974	1.84684
3625.70117	1.89616
3623.77261	1.92941
3621.84404	1.96245
3619.91548	2.00083
3617.98691	2.04746
3616.05835	2.09114
3614.12979	2.12593
3612.20122	2.16328
3610.27266	2.20186
3608.34409	2.24140
3606.41553	2.28511
3604.48696	2.32623
3602.55840	2.36208
3600.62983	2.39912
3598.70127	2.43847
3596.77271	2.47740
3594.84414	2.51716
3592.91558	2.55827
3590.98701	2.59744
3589.05845	2.63384
3587.12988	2.67750
3585.20132	2.72620
3583.27275	2.76601
3581.34419	2.80178
3579.41562	2.84128
3577.48706	2.88445
3575.55850	2.92799
3573.62993	2.97072
3571.70137	3.01047
3569.77280	3.04843
3567.84424	3.09074
3565.91567	3.14568
3563.98711	3.20023
3562.05854	3.24149
3560.12998	3.28009
3558.20142	3.32260
3556.27285	3.36641
3554.34429	3.40849
3552.41572	3.45432
3550.48716	3.50395
3548.55859	3.54938
3546.63003	3.59302
3544.70146	3.64343
3542.77290	3.69542
3540.84434	3.74042
3538.91577	3.78367
3536.98721	3.82929
3535.05864	3.87495
3533.13008	3.91836
3531.20151	3.96332
3529.27295	4.01251
3527.34438	4.06452
3525.41582	4.11491
3523.48726	4.16339
3521.55869	4.21321
3519.63013	4.25885
3517.70156	4.29982
3515.77300	4.34184
3513.84443	4.38862
3511.91587	4.44251
3509.98730	4.49799
3508.05874	4.54747
3506.13018	4.59224
3504.20161	4.63631
3502.27305	4.68320
3500.34448	4.73397
3498.41592	4.78511
3496.48735	4.83492
3494.55879	4.88450
3492.63022	4.92978
3490.70166	4.96865
3488.77310	5.01185
3486.84453	5.06078
3484.91597	5.11045
3482.98740	5.16182
3481.05884	5.20917
3479.13027	5.25211
3477.20171	5.29543
3475.27314	5.33931
3473.34458	5.39047
3471.41602	5.44937
3469.48745	5.50458
3467.55889	5.55031
3465.63032	5.59061
3463.70176	5.63147
3461.77319	5.67345
3459.84463	5.72164
3457.91606	5.77837
3455.98750	5.84222
3454.05894	5.90220
3452.13037	5.94811
3450.20181	5.99324
3448.27324	6.03480
3446.34468	6.06984
3444.41611	6.12001
3442.48755	6.19284
3440.55898	6.26459
3438.63042	6.30686
3436.70186	6.32057
3434.77329	6.33606
3432.84473	6.37827
3430.91616	6.45210
3428.98760	6.54463
3427.05903	6.61420
3425.13047	6.64365
3423.20190	6.65812
3421.27334	6.68979
3419.34478	6.73795
3417.41621	6.78193
3415.48765	6.82204
3413.55908	6.86652
3411.63052	6.93467
3409.70195	7.00519
3407.77339	7.02397
3405.84482	7.01018
3403.91626	7.03691
3401.98770	7.09963
3400.05913	7.14539
3398.13057	7.15270
3396.20200	7.16199
3394.27344	7.25113
3392.34487	7.38044
3390.41631	7.45475
3388.48774	7.48016
3386.55918	7.50072
3384.63062	7.53097
3382.70205	7.57027
3380.77349	7.57829
3378.84492	7.56785
3376.91636	7.59071
3374.98779	7.59989
3373.05923	7.58813
3371.13066	7.61305
3369.20210	7.68287
3367.27354	7.73207
3365.34497	7.75612
3363.41641	7.79046
3361.48784	7.82929
3359.55928	7.87016
3357.63071	7.85514
3355.70215	7.83543
3353.77358	7.87800
3351.84502	7.89676
3349.91646	7.86978
3347.98789	7.88458
3346.05933	7.92002
3344.13076	7.91614
3342.20220	7.91328
3340.27363	7.94824
3338.34507	7.98078
3336.41650	7.95102
3334.48794	7.93458
3332.55937	7.99328
3330.63081	8.08127
3328.70225	8.11502
3326.77368	8.05884
3324.84512	7.96865
3322.91655	7.91330
3320.98799	7.95658
3319.05942	8.07824
3317.13086	8.15295
3315.20229	8.10690
3313.27373	8.08183
3311.34517	8.12746
3309.41660	8.12697
3307.48804	8.04270
3305.55947	7.95041
3303.63091	7.95784
3301.70234	8.02047
3299.77378	8.05107
3297.84521	8.09322
3295.91665	8.17000
3293.98809	8.17243
3292.05952	8.10578
3290.13096	8.09520
3288.20239	8.11258
3286.27383	8.09963
3284.34526	8.06961
3282.41670	8.07712
3280.48813	8.15505
3278.55957	8.21411
3276.63101	8.13694
3274.70244	8.02640
3272.77388	8.02509
3270.84531	8.14464
3268.91675	8.25243
3266.98818	8.17182
3265.05962	8.05856
3263.13105	8.08182
3261.20249	8.17227
3259.27393	8.19449
3257.34536	8.16784
3255.41680	8.18979
3253.48823	8.21587
3251.55967	8.20894
3249.63110	8.22309
3247.70254	8.27383
3245.77397	8.26164
3243.84541	8.12093
3241.91685	7.97385
3239.98828	7.95177
3238.05972	8.02009
3236.13115	8.03833
3234.20259	7.99835
3232.27402	7.97198
3230.34546	7.94827
3228.41689	7.89861
3226.48833	7.86270
3224.55977	7.86818
3222.63120	7.89415
3220.70264	7.92668
3218.77407	7.92348
3216.84551	7.84450
3214.91694	7.76962
3212.98838	7.79960
3211.05981	7.87854
3209.13125	7.88927
3207.20269	7.86181
3205.27412	7.85036
3203.34556	7.80694
3201.41699	7.73129
3199.48843	7.65478
3197.55986	7.54088
3195.63130	7.44052
3193.70273	7.41512
3191.77417	7.43031
3189.84561	7.44593
3187.91704	7.41653
3185.98848	7.34471
3184.05991	7.26773
3182.13135	7.19667
3180.20278	7.14557
3178.27422	7.09356
3176.34565	7.02673
3174.41709	6.98662
3172.48853	6.97159
3170.55996	6.92143
3168.63140	6.83949
3166.70283	6.77838
3164.77427	6.73902
3162.84570	6.68933
3160.91714	6.62100
3158.98857	6.54787
3157.06001	6.48329
3155.13145	6.41716
3153.20288	6.33676
3151.27432	6.27471
3149.34575	6.23267
3147.41719	6.17011
3145.48862	6.09243
3143.56006	6.01974
3141.63149	5.94965
3139.70293	5.87248
3137.77437	5.79261
3135.84580	5.72456
3133.91724	5.66312
3131.98867	5.59192
3130.06011	5.51276
3128.13154	5.44030
3126.20298	5.38229
3124.27441	5.33020
3122.34585	5.26378
3120.41729	5.18166
3118.48872	5.10564
3116.56016	5.04342
3114.63159	4.98012
3112.70303	4.91030
3110.77446	4.84065
3108.84590	4.77246
3106.91733	4.70729
3104.98877	4.64353
3103.06021	4.57444
3101.13164	4.50254
3099.20308	4.43612
3097.27451	4.37362
3095.34595	4.31003
3093.41738	4.24502
3091.48882	4.18033
3089.56025	4.11813
3087.63169	4.05762
3085.70312	3.99717
3083.77456	3.93745
3081.84600	3.87706
3079.91743	3.81436
3077.98887	3.75327
3076.06030	3.69475
3074.13174	3.63586
3072.20317	3.57834
3070.27461	3.52322
3068.34604	3.46875
3066.41748	3.41419
3064.48892	3.36006
3062.56035	3.30724
3060.63179	3.25435
3058.70322	3.19976
3056.77466	3.14502
3054.84609	3.09204
3052.91753	3.04125
3050.98896	2.99202
3049.06040	2.94229
3047.13184	2.89182
3045.20327	2.84267
3043.27471	2.79571
3041.34614	2.74970
3039.41758	2.70305
3037.48901	2.65645
3035.56045	2.61158
3033.63188	2.56767
3031.70332	2.52268
3029.77476	2.47749
3027.84619	2.43405
3025.91763	2.39150
3023.98906	2.34953
3022.06050	2.30943
3020.13193	2.27007
3018.20337	2.23013
3016.27480	2.19062
3014.34624	2.15246
3012.41768	2.11543
3010.48911	2.07854
3008.56055	2.04162
3006.63198	2.00566
3004.70342	1.97080
3002.77485	1.93669
3000.84629	1.90309
2998.91772	1.86975
2996.98916	1.83703
2995.06060	1.80540
2993.13203	1.77435
2991.20347	1.74351
2989.27490	1.71343
2987.34634	1.68456
2985.41777	1.65668
2983.48921	1.62919
2981.56064	1.60188
2979.63208	1.57501
2977.70352	1.54845
2975.77495	1.52231
2973.84639	1.49709
2971.91782	1.47263
2969.98926	1.44824
2968.06069	1.42379
2966.13213	1.40005
2964.20356	1.37721
2962.27500	1.35446
2960.34644	1.33122
2958.41787	1.30749
2956.48931	1.28375
2954.56074	1.26068
2952.63218	1.23805
2950.70361	1.21542
2948.77505	1.19321
2946.84648	1.17159
2944.91792	1.15050
2942.98936	1.13016
2941.06079	1.11027
2939.13223	1.09074
2937.20366	1.07158
2935.27510	1.05203
2933.34653	1.03271
2931.41797	1.01476
2929.48940	0.99692
2927.56084	0.97838
2925.63228	0.96039
2923.70371	0.94309
2921.77515	0.92586
2919.84658	0.90885
2917.91802	0.89189
2915.98945	0.87482
2914.06089	0.85824
2912.13232	0.84251
2910.20376	0.82733
2908.27520	0.81227
2906.34663	0.79731
2904.41807	0.78263
2902.48950	0.76850
2900.56094	0.75510
2898.63237	0.74221
2896.70381	0.72950
2894.77524	0.71696
2892.84668	0.70478
2890.91812	0.69293
2888.98955	0.68113
2887.06099	0.66953
2885.13242	0.65874
2883.20386	0.64874
2881.27529	0.63906
2879.34673	0.62947
2877.41816	0.61992
2875.48960	0.61045
2873.56104	0.60086
2871.63247	0.59074
2869.70391	0.58014
2867.77534	0.56938
2865.84678	0.55847
2863.91821	0.54759
2861.98965	0.53707
2860.06108	0.52700
2858.13252	0.51755
2856.20396	0.50861
2854.27539	0.49993
2852.34683	0.49134
2850.41826	0.48280
2848.48970	0.47469
2846.56113	0.46709
2844.63257	0.45957
2842.70400	0.45236
2840.77544	0.44590
2838.84687	0.43977
2836.91831	0.43353
2834.98975	0.42735
2833.06118	0.42130
2831.13262	0.41533
2829.20405	0.40958
2827.27549	0.40379
2825.34692	0.39770
2823.41836	0.39173
2821.48979	0.38602
2819.56123	0.38031
2817.63267	0.37469
2815.70410	0.36939
2813.77554	0.36428
2811.84697	0.35908
2809.91841	0.35378
2807.98984	0.34853
2806.06128	0.34334
2804.13271	0.33834
2802.20415	0.33362
2800.27559	0.32890
2798.34702	0.32403
2796.41846	0.31934
2794.48989	0.31490
2792.56133	0.31065
2790.63276	0.30660
2788.70420	0.30252
2786.77563	0.29815
2784.84707	0.29372
2782.91851	0.28953
2780.98994	0.28559
2779.06138	0.28189
2777.13281	0.27829
2775.20425	0.27476
2773.27568	0.27134
2771.34712	0.26782
2769.41855	0.26415
2767.48999	0.26048
2765.56143	0.25688
2763.63286	0.25338
2761.70430	0.25014
2759.77573	0.24716
2757.84717	0.24414
2755.91860	0.24107
2753.99004	0.23815
2752.06147	0.23530
2750.13291	0.23246
2748.20435	0.22968
2746.27578	0.22698
2744.34722	0.22426
2742.41865	0.22158
2740.49009	0.21908
2738.56152	0.21670
2736.63296	0.21422
2734.70439	0.21169
2732.77583	0.20931
2730.84727	0.20717
2728.91870	0.20508
2726.99014	0.20295
2725.06157	0.20078
2723.13301	0.19871
2721.20444	0.19681
2719.27588	0.19493
2717.34731	0.19301
2715.41875	0.19104
2713.49019	0.18905
2711.56162	0.18725
2709.63306	0.18583
2707.70449	0.18447
2705.77593	0.18289
2703.84736	0.18117
2701.91880	0.17959
2699.99023	0.17820
2698.06167	0.17693
2696.13311	0.17565
2694.20454	0.17423
2692.27598	0.17277
2690.34741	0.17145
2688.41885	0.17027
2686.49028	0.16921
2684.56172	0.16817
2682.63315	0.16693
2680.70459	0.16556
2678.77603	0.16441
2676.84746	0.16348
2674.91890	0.16247
2672.99033	0.16137
2671.06177	0.16031
2669.13320	0.15935
2667.20464	0.15856
2665.27607	0.15784
2663.34751	0.15690
2661.41895	0.15577
2659.49038	0.15490
2657.56182	0.15435
2655.63325	0.15381
2653.70469	0.15324
2651.77612	0.15267
2649.84756	0.15200
2647.91899	0.15128
2645.99043	0.15069
2644.06187	0.15021
2642.13330	0.14972
2640.20474	0.14922
2638.27617	0.14876
2636.34761	0.14835
2634.41904	0.14808
2632.49048	0.14788
2630.56191	0.14742
2628.63335	0.14684
2626.70479	0.14654
2624.77622	0.14630
2622.84766	0.14592
2620.91909	0.14557
2618.99053	0.14539
2617.06196	0.14531
2615.13340	0.14524
2613.20483	0.14512
2611.27627	0.14493
2609.34771	0.14472
2607.41914	0.14457
2605.49058	0.14456
2603.56201	0.14463
2601.63345	0.14472
2599.70488	0.14467
2597.77632	0.14454
2595.84775	0.14459
2593.91919	0.14483
2591.99062	0.14503
2590.06206	0.14508
2588.13350	0.14511
2586.20493	0.14526
2584.27637	0.14549
2582.34780	0.14563
2580.41924	0.14575
2578.49067	0.14603
2576.56211	0.14643
2574.63354	0.14673
2572.70498	0.14687
2570.77642	0.14706
2568.84785	0.14750
2566.91929	0.14802
2564.99072	0.14840
2563.06216	0.14869
2561.13359	0.14906
2559.20503	0.14950
2557.27646	0.14998
2555.34790	0.15051
2553.41934	0.15110
2551.49077	0.15168
2549.56221	0.15217
2547.63364	0.15259
2545.70508	0.15304
2543.77651	0.15363
2541.84795	0.15428
2539.91938	0.15487
2537.99082	0.15547
2536.06226	0.15619
2534.13369	0.15693
2532.20513	0.15761
2530.27656	0.15818
2528.34800	0.15874
2526.41943	0.15936
2524.49087	0.16013
2522.56230	0.16092
2520.63374	0.16165
2518.70518	0.16234
2516.77661	0.16302
2514.84805	0.16375
2512.91948	0.16461
2510.99092	0.16555
2509.06235	0.16634
2507.13379	0.16698
2505.20522	0.16765
2503.27666	0.16841
2501.34810	0.16924
2499.41953	0.17005
2497.49097	0.17080
2495.56240	0.17156
2493.63384	0.17235
2491.70527	0.17313
2489.77671	0.17403
2487.84814	0.17506
2485.91958	0.17607
2483.99102	0.17694
2482.06245	0.17766
2480.13389	0.17835
2478.20532	0.17924
2476.27676	0.18030
2474.34819	0.18136
2472.41963	0.18231
2470.49106	0.18325
2468.56250	0.18419
2466.63394	0.18503
2464.70537	0.18586
2462.77681	0.18668
2460.84824	0.18746
2458.91968	0.18821
2456.99111	0.18905
2455.06255	0.19005
2453.13398	0.19108
2451.20542	0.19201
2449.27686	0.19295
2447.34829	0.19400
2445.41973	0.19509
2443.49116	0.19618
2441.56260	0.19718
2439.63403	0.19808
2437.70547	0.19901
2435.77690	0.19997
2433.84834	0.20089
2431.91978	0.20183
2429.99121	0.20281
2428.06265	0.20388
2426.13408	0.20497
2424.20552	0.20597
2422.27695	0.20693
2420.34839	0.20801
2418.41982	0.20931
2416.49126	0.21063
2414.56270	0.21178
2412.63413	0.21295
2410.70557	0.21423
2408.77700	0.21540
2406.84844	0.21645
2404.91987	0.21756
2402.99131	0.21878
2401.06274	0.22006
2399.13418	0.22120
2397.20562	0.22223
2395.27705	0.22334
2393.34849	0.22455
2391.41992	0.22585
2389.49136	0.22733
2387.56279	0.22912
2385.63423	0.23144
2383.70566	0.23441
2381.77710	0.23793
2379.84854	0.24197
2377.91997	0.24661
2375.99141	0.25187
2374.06284	0.25800
2372.13428	0.26498
2370.20571	0.27191
2368.27715	0.27812
2366.34858	0.28393
2364.42002	0.28932
2362.49146	0.29335
2360.56289	0.29567
2358.63433	0.29742
2356.70576	0.29781
2354.77720	0.29556
2352.84863	0.29180
2350.92007	0.28756
2348.99150	0.28529
2347.06294	0.28618
2345.13437	0.29013
2343.20581	0.29598
2341.27725	0.30064
2339.34868	0.30233
2337.42012	0.30271
2335.49155	0.30330
2333.56299	0.30389
2331.63442	0.30505
2329.70586	0.30676
2327.77729	0.30788
2325.84873	0.30762
2323.92017	0.30665
2321.99160	0.30591
2320.06304	0.30516
2318.13447	0.30434
2316.20591	0.30380
2314.27734	0.30366
2312.34878	0.30391
2310.42021	0.30439
2308.49165	0.30452
2306.56309	0.30425
2304.63452	0.30429
2302.70596	0.30493
2300.77739	0.30573
2298.84883	0.30660
2296.92026	0.30778
2294.99170	0.30912
2293.06313	0.31020
2291.13457	0.31116
2289.20601	0.31239
2287.27744	0.31368
2285.34888	0.31486
2283.42031	0.31629
2281.49175	0.31809
2279.56318	0.32006
2277.63462	0.32211
2275.70605	0.32424
2273.77749	0.32644
2271.84893	0.32868
2269.92036	0.33082
2267.99180	0.33277
2266.06323	0.33464
2264.13467	0.33649
2262.20610	0.33832
2260.27754	0.34022
2258.34897	0.34242
2256.42041	0.34473
2254.49185	0.34680
2252.56328	0.34869
2250.63472	0.35055
2248.70615	0.35249
2246.77759	0.35459
2244.84902	0.35682
2242.92046	0.35899
2240.99189	0.36098
2239.06333	0.36289
2237.13477	0.36495
2235.20620	0.36728
2233.27764	0.36968
2231.34907	0.37191
2229.42051	0.37401
2227.49194	0.37613
2225.56338	0.37831
2223.63481	0.38048
2221.70625	0.38254
2219.77769	0.38457
2217.84912	0.38667
2215.92056	0.38888
2213.99199	0.39117
2212.06343	0.39344
2210.13486	0.39561
2208.20630	0.39768
2206.27773	0.39964
2204.34917	0.40154
2202.42061	0.40348
2200.49204	0.40550
2198.56348	0.40753
2196.63491	0.40958
2194.70635	0.41162
2192.77778	0.41357
2190.84922	0.41542
2188.92065	0.41717
2186.99209	0.41893
2185.06353	0.42079
2183.13496	0.42258
2181.20640	0.42420
2179.27783	0.42578
2177.34927	0.42744
2175.42070	0.42906
2173.49214	0.43058
2171.56357	0.43203
2169.63501	0.43342
2167.70645	0.43467
2165.77788	0.43588
2163.84932	0.43713
2161.92075	0.43833
2159.99219	0.43942
2158.06362	0.44042
2156.13506	0.44131
2154.20649	0.44220
2152.27793	0.44312
2150.34937	0.44387
2148.42080	0.44440
2146.49224	0.44490
2144.56367	0.44541
2142.63511	0.44596
2140.70654	0.44654
2138.77798	0.44697
2136.84941	0.44718
2134.92085	0.44729
2132.99229	0.44737
2131.06372	0.44749
2129.13516	0.44752
2127.20659	0.44728
2125.27803	0.44689
2123.34946	0.44653
2121.42090	0.44618
2119.49233	0.44571
2117.56377	0.44516
2115.63521	0.44456
2113.70664	0.44382
2111.77808	0.44291
2109.84951	0.44197
2107.92095	0.44111
2105.99238	0.44023
2104.06382	0.43920
2102.13525	0.43800
2100.20669	0.43672
2098.27812	0.43541
2096.34956	0.43404
2094.42100	0.43258
2092.49243	0.43108
2090.56387	0.42948
2088.63530	0.42773
2086.70674	0.42596
2084.77817	0.42422
2082.84961	0.42247
2080.92104	0.42066
2078.99248	0.41875
2077.06392	0.41677
2075.13535	0.41478
2073.20679	0.41274
2071.27822	0.41050
2069.34966	0.40819
2067.42109	0.40603
2065.49253	0.40392
2063.56396	0.40165
2061.63540	0.39929
2059.70684	0.39686
2057.77827	0.39435
2055.84971	0.39195
2053.92114	0.38958
2051.99258	0.38705
2050.06401	0.38436
2048.13545	0.38169
2046.20688	0.37906
2044.27832	0.37654
2042.34976	0.37404
2040.42119	0.37135
2038.49263	0.36858
2036.56406	0.36595
2034.63550	0.36336
2032.70693	0.36071
2030.77837	0.35809
2028.84980	0.35541
2026.92124	0.35264
2024.99268	0.34985
2023.06411	0.34708
2021.13555	0.34441
2019.20698	0.34188
2017.27842	0.33933
2015.34985	0.33660
2013.42129	0.33381
2011.49272	0.33107
2009.56416	0.32838
2007.63560	0.32574
2005.70703	0.32314
2003.77847	0.32056
2001.84990	0.31794
1999.92134	0.31530
1997.99277	0.31272
1996.06421	0.31023
1994.13564	0.30787
1992.20708	0.30554
1990.27852	0.30306
1988.34995	0.30057
1986.42139	0.29814
1984.49282	0.29576
1982.56426	0.29333
1980.63569	0.29086
1978.70713	0.28846
1976.77856	0.28612
1974.85000	0.28394
1972.92144	0.28195
1970.99287	0.28010
1969.06431	0.27826
1967.13574	0.27624
1965.20718	0.27404
1963.27861	0.27192
1961.35005	0.27001
1959.42148	0.26815
1957.49292	0.26629
1955.56436	0.26451
1953.63579	0.26278
1951.70723	0.26101
1949.77866	0.25934
1947.85010	0.25784
1945.92153	0.25648
1943.99297	0.25517
1942.06440	0.25373
1940.13584	0.25202
1938.20728	0.25029
1936.27871	0.24886
1934.35015	0.24762
1932.42158	0.24644
1930.49302	0.24532
1928.56445	0.24428
1926.63589	0.24326
1924.70732	0.24240
1922.77876	0.24160
1920.85020	0.24061
1918.92163	0.23965
1916.99307	0.23875
1915.06450	0.23763
1913.13594	0.23659
1911.20737	0.23597
1909.27881	0.23551
1907.35024	0.23485
1905.42168	0.23403
1903.49312	0.23329
1901.56455	0.23275
1899.63599	0.23228
1897.70742	0.23184
1895.77886	0.23146
1893.85029	0.23111
1891.92173	0.23080
1889.99316	0.23073
1888.06460	0.23046
1886.13604	0.22994
1884.20747	0.22960
1882.27891	0.22938
1880.35034	0.22915
1878.42178	0.22899
1876.49321	0.22897
1874.56465	0.22893
1872.63608	0.22901
1870.70752	0.22953
1868.77896	0.23053
1866.85039	0.23096
1864.92183	0.23053
1862.99326	0.23023
1861.06470	0.23035
1859.13613	0.23070
1857.20757	0.23107
1855.27900	0.23140
1853.35044	0.23165
1851.42187	0.23205
1849.49331	0.23275
1847.56475	0.23373
1845.63618	0.23491
1843.70762	0.23609
1841.77905	0.23668
1839.85049	0.23686
1837.92192	0.23752
1835.99336	0.23841
1834.06479	0.23924
1832.13623	0.24035
1830.20767	0.24212
1828.27910	0.24374
1826.35054	0.24471
1824.42197	0.24583
1822.49341	0.24679
1820.56484	0.24767
1818.63628	0.24889
1816.70771	0.25051
1814.77915	0.25218
1812.85059	0.25400
1810.92202	0.25617
1808.99346	0.25823
1807.06489	0.25997
1805.13633	0.26174
1803.20776	0.26405
1801.27920	0.26685
1799.35063	0.26979
1797.42207	0.27224
1795.49351	0.27460
1793.56494	0.27754
1791.63638	0.28125
1789.70781	0.28441
1787.77925	0.28660
1785.85068	0.28948
1783.92212	0.29312
1781.99355	0.29722
1780.06499	0.30156
1778.13643	0.30579
1776.20786	0.30974
1774.27930	0.31424
1772.35073	0.32040
1770.42217	0.32666
1768.49360	0.33151
1766.56504	0.33614
1764.63647	0.34112
1762.70791	0.34694
1760.77935	0.35437
1758.85078	0.36131
1756.92222	0.36841
1754.99365	0.37616
1753.06509	0.38315
1751.13652	0.39171
1749.20796	0.40269
1747.27939	0.41313
1745.35083	0.42182
1743.42227	0.43096
1741.49370	0.44120
1739.56514	0.45350
1737.63657	0.46597
1735.70801	0.47696
1733.77944	0.49336
1731.85088	0.51272
1729.92231	0.52786
1727.99375	0.54307
1726.06519	0.55935
1724.13662	0.57733
1722.20806	0.59707
1720.27949	0.61552
1718.35093	0.63737
1716.42236	0.66949
1714.49380	0.69934
1712.56523	0.72313
1710.63667	0.74647
1708.70811	0.77205
1706.77954	0.80133
1704.85098	0.83635
1702.92241	0.86759
1700.99385	0.89830
1699.06528	0.94410
1697.13672	0.98664
1695.20815	1.03057
1693.27959	1.07302
1691.35103	1.10730
1689.42246	1.14741
1687.49390	1.19007
1685.56533	1.23122
1683.63677	1.29510
1681.70820	1.36146
1679.77964	1.40360
1677.85107	1.44368
1675.92251	1.48989
1673.99395	1.54728
1672.06538	1.59884
1670.13682	1.65040
1668.20825	1.71735
1666.27969	1.77104
1664.35112	1.81676
1662.42256	1.87550
1660.49399	1.94224
1658.56543	1.99405
1656.63687	2.03570
1654.70830	2.07415
1652.77974	2.13382
1650.85117	2.18887
1648.92261	2.20802
1646.99404	2.23240
1645.06548	2.26007
1643.13691	2.27934
1641.20835	2.29078
1639.27979	2.30087
1637.35122	2.30656
1635.42266	2.30409
1633.49409	2.29554
1631.56553	2.28234
1629.63696	2.26551
1627.70840	2.23760
1625.77983	2.20403
1623.85127	2.16100
1621.92271	2.10885
1619.99414	2.06343
1618.06558	2.01956
1616.13701	1.95548
1614.20845	1.88855
1612.27988	1.83794
1610.35132	1.78686
1608.42275	1.73187
1606.49419	1.67710
1604.56562	1.62655
1602.63706	1.57779
1600.70850	1.53015
1598.77993	1.48625
1596.85137	1.44509
1594.92280	1.40545
1592.99424	1.36723
1591.06567	1.33230
1589.13711	1.29958
1587.20854	1.26887
1585.27998	1.24065
1583.35142	1.21452
1581.42285	1.19069
1579.49429	1.17061
1577.56572	1.15309
1575.63716	1.13168
1573.70859	1.11259
1571.78003	1.10055
1569.85146	1.08857
1567.92290	1.07525
1565.99434	1.06529
1564.06577	1.05824
1562.13721	1.05354
1560.20864	1.05170
1558.28008	1.05122
1556.35151	1.04972
1554.42295	1.04817
1552.49438	1.04699
1550.56582	1.04492
1548.63726	1.04077
1546.70869	1.03465
1544.78013	1.02624
1542.85156	1.01486
1540.92300	0.99788
1538.99443	0.97119
1537.06587	0.95130
1535.13730	0.93821
1533.20874	0.92113
1531.28018	0.90227
1529.35161	0.88855
1527.42305	0.87586
1525.49448	0.86250
1523.56592	0.85123
1521.63735	0.84073
1519.70879	0.82970
1517.78022	0.82016
1515.85166	0.80912
1513.92310	0.79747
1511.99453	0.78763
1510.06597	0.77924
1508.13740	0.77158
1506.20884	0.75860
1504.28027	0.74610
1502.35171	0.73918
1500.42314	0.73367
1498.49458	0.72804
1496.56602	0.72100
1494.63745	0.71357
1492.70889	0.70816
1490.78032	0.70406
1488.85176	0.69925
1486.92319	0.69387
1484.99463	0.68930
1483.06606	0.68588
1481.13750	0.68319
1479.20894	0.68115
1477.28037	0.68027
1475.35181	0.68026
1473.42324	0.68020
1471.49468	0.67890
1469.56611	0.67662
1467.63755	0.67442
1465.70898	0.67259
1463.78042	0.67083
1461.85186	0.66944
1459.92329	0.66906
1457.99473	0.66946
1456.06616	0.66865
1454.13760	0.66572
1452.20903	0.66259
1450.28047	0.65973
1448.35190	0.65708
1446.42334	0.65433
1444.49478	0.65162
1442.56621	0.64899
1440.63765	0.64641
1438.70908	0.64411
1436.78052	0.64143
1434.85195	0.63787
1432.92339	0.63481
1430.99482	0.63277
1429.06626	0.63152
1427.13770	0.63092
1425.20913	0.63103
1423.28057	0.63171
1421.35200	0.63240
1419.42344	0.63302
1417.49487	0.63288
1415.56631	0.63159
1413.63774	0.63039
1411.70918	0.62988
1409.78062	0.63015
1407.85205	0.63097
1405.92349	0.63215
1403.99492	0.63317
1402.06636	0.63335
1400.13779	0.63285
1398.20923	0.63164
1396.28066	0.62947
1394.35210	0.62606
1392.42354	0.62191
1390.49497	0.61811
1388.56641	0.61461
1386.63784	0.61049
1384.70928	0.60579
1382.78071	0.60141
1380.85215	0.59757
1378.92358	0.59435
1376.99502	0.59190
1375.06646	0.59012
1373.13789	0.58856
1371.20933	0.58718
1369.28076	0.58616
1367.35220	0.58508
1365.42363	0.58363
1363.49507	0.58219
1361.56650	0.58089
1359.63794	0.57956
1357.70937	0.57823
1355.78081	0.57700
1353.85225	0.57606
1351.92368	0.57543
1349.99512	0.57490
1348.06655	0.57429
1346.13799	0.57349
1344.20942	0.57265
1342.28086	0.57214
1340.35229	0.57192
1338.42373	0.57135
1336.49517	0.57035
1334.56660	0.56960
1332.63804	0.56943
1330.70947	0.56957
1328.78091	0.56972
1326.85234	0.56995
1324.92378	0.57039
1322.99521	0.57096
1321.06665	0.57156
1319.13809	0.57213
1317.20952	0.57244
1315.28096	0.57242
1313.35239	0.57215
1311.42383	0.57163
1309.49526	0.57097
1307.56670	0.57039
1305.63813	0.56991
1303.70957	0.56935
1301.78101	0.56859
1299.85244	0.56773
1297.92388	0.56686
1295.99531	0.56585
1294.06675	0.56464
1292.13818	0.56334
1290.20962	0.56220
1288.28105	0.56128
1286.35249	0.56036
1284.42393	0.55928
1282.49536	0.55807
1280.56680	0.55688
1278.63823	0.55575
1276.70967	0.55460
1274.78110	0.55358
1272.85254	0.55283
1270.92397	0.55222
1268.99541	0.55159
1267.06685	0.55087
1265.13828	0.55005
1263.20972	0.54918
1261.28115	0.54843
1259.35259	0.54773
1257.42402	0.54697
1255.49546	0.54639
1253.56689	0.54624
1251.63833	0.54637
1249.70977	0.54651
1247.78120	0.54662
1245.85264	0.54660
1243.92407	0.54621
1241.99551	0.54539
1240.06694	0.54415
1238.13838	0.54254
1236.20981	0.54073
1234.28125	0.53881
1232.35269	0.53687
1230.42412	0.53505
1228.49556	0.53344
1226.56699	0.53194
1224.63843	0.53045
1222.70986	0.52905
1220.78130	0.52786
1218.85273	0.52682
1216.92417	0.52571
1214.99561	0.52467
1213.06704	0.52391
1211.13848	0.52326
1209.20991	0.52257
1207.28135	0.52182
1205.35278	0.52093
1203.42422	0.52000
1201.49565	0.51916
1199.56709	0.51849
1197.63853	0.51795
1195.70996	0.51745
1193.78140	0.51698
1191.85283	0.51660
1189.92427	0.51631
1187.99570	0.51608
1186.06714	0.51591
1184.13857	0.51591
1182.21001	0.51623
1180.28145	0.51695
1178.35288	0.51793
1176.42432	0.51900
1174.49575	0.52002
1172.56719	0.52087
1170.63862	0.52125
1168.71006	0.52113
1166.78149	0.52080
1164.85293	0.52047
1162.92437	0.52007
1160.99580	0.51938
1159.06724	0.51847
1157.13867	0.51768
1155.21011	0.51682
1153.28154	0.51540
1151.35298	0.51348
1149.42441	0.51136
1147.49585	0.50913
1145.56729	0.50682
1143.63872	0.50453
1141.71016	0.50237
1139.78159	0.50033
1137.85303	0.49850
1135.92446	0.49714
1133.99590	0.49625
1132.06733	0.49556
1130.13877	0.49482
1128.21021	0.49400
1126.28164	0.49307
1124.35308	0.49203
1122.42451	0.49103
1120.49595	0.49036
1118.56738	0.48994
1116.63882	0.48963
1114.71025	0.48947
1112.78169	0.48941
1110.85312	0.48933
1108.92456	0.48952
1106.99600	0.49015
1105.06743	0.49122
1103.13887	0.49263
1101.21030	0.49428
1099.28174	0.49635
1097.35317	0.49898
1095.42461	0.50217
1093.49604	0.50587
1091.56748	0.50998
1089.63892	0.51449
1087.71035	0.51951
1085.78179	0.52517
1083.85322	0.53138
1081.92466	0.53760
1079.99609	0.54282
1078.06753	0.54601
1076.13896	0.54645
1074.21040	0.54421
1072.28184	0.53990
1070.35327	0.53426
1068.42471	0.52816
1066.49614	0.52183
1064.56758	0.51525
1062.63901	0.50913
1060.71045	0.50396
1058.78188	0.49945
1056.85332	0.49532
1054.92476	0.49167
1052.99619	0.48857
1051.06763	0.48593
1049.13906	0.48365
1047.21050	0.48176
1045.28193	0.48023
1043.35337	0.47879
1041.42480	0.47741
1039.49624	0.47622
1037.56768	0.47516
1035.63911	0.47427
1033.71055	0.47376
1031.78198	0.47360
1029.85342	0.47346
1027.92485	0.47336
1025.99629	0.47356
1024.06772	0.47410
1022.13916	0.47473
1020.21060	0.47532
1018.28203	0.47603
1016.35347	0.47693
1014.42490	0.47791
1012.49634	0.47892
1010.56777	0.48003
1008.63921	0.48131
1006.71064	0.48288
1004.78208	0.48479
1002.85352	0.48698
1000.92495	0.48955
998.99639	0.49261
997.06782	0.49611
995.13926	0.50004
993.21069	0.50415
991.28213	0.50784
989.35356	0.51064
987.42500	0.51255
985.49644	0.51368
983.56787	0.51425
981.63931	0.51494
979.71074	0.51622
977.78218	0.51795
975.85361	0.52021
973.92505	0.52290
971.99648	0.52576
970.06792	0.52895
968.13936	0.53262
966.21079	0.53668
964.28223	0.54109
962.35366	0.54581
960.42510	0.55080
958.49653	0.55607
956.56797	0.56162
954.63940	0.56760
952.71084	0.57407
950.78228	0.58062
948.85371	0.58683
946.92515	0.59274
944.99658	0.59863
943.06802	0.60486
941.13945	0.61120
939.21089	0.61697
937.28232	0.62234
935.35376	0.62778
933.42520	0.63311
931.49663	0.63830
929.56807	0.64386
927.63950	0.64994
925.71094	0.65608
923.78237	0.66177
921.85381	0.66731
919.92524	0.67352
917.99668	0.68061
916.06812	0.68844
914.13955	0.69646
912.21099	0.70421
910.28242	0.71164
908.35386	0.71841
906.42529	0.72549
904.49673	0.73397
902.56816	0.74274
900.63960	0.75169
898.71104	0.76153
896.78247	0.77123
894.85391	0.78043
892.92534	0.78995
890.99678	0.79991
889.06821	0.81077
887.13965	0.82220
885.21108	0.83325
883.28252	0.84436
881.35396	0.85665
879.42539	0.86891
877.49683	0.87894
875.56826	0.88866
873.63970	0.90015
871.71113	0.91200
869.78257	0.92376
867.85400	0.93651
865.92544	0.94901
863.99687	0.95962
862.06831	0.96922
860.13975	0.97860
858.21118	0.98952
856.28262	1.00341
854.35405	1.01781
852.42549	1.03029
850.49692	1.04117
848.56836	1.05118
846.63979	1.06084
844.71123	1.07038
842.78267	1.07981
840.85410	1.09014
838.92554	1.10103
836.99697	1.11223
835.06841	1.12287
833.13984	1.13341
831.21128	1.14650
829.28271	1.15777
827.35415	1.16473
825.42559	1.17185
823.49702	1.18293
821.56846	1.19769
819.63989	1.21165
817.71133	1.22784
815.78276	1.24864
813.85420	1.26313
811.92563	1.26882
809.99707	1.27609
808.06851	1.28018
806.13994	1.27905
804.21138	1.28769
802.28281	1.29908
800.35425	1.30068
798.42568	1.30049
796.49712	1.29523
794.56855	1.29829
792.63999	1.32678
790.71143	1.35445
788.78286	1.36135
786.85430	1.37031
784.92573	1.40111
782.99717	1.40247
781.06860	1.37503
779.14004	1.40018
777.21147	1.45297
775.28291	1.43847
773.35435	1.35830
771.42578	1.29394
769.49722	1.28180
767.56865	1.31991
765.64009	1.32798
763.71152	1.21084
761.78296	1.12300
759.85439	1.15991
757.92583	1.23669
755.99727	1.21164
754.06870	1.16402
752.14014	1.11143
750.21157	1.07585
748.28301	1.08156
746.35444	1.06644
744.42588	0.97587
742.49731	0.86558
740.56875	0.80973
738.64019	0.82381
736.71162	0.86206
734.78306	0.85855
732.85449	0.75689
730.92593	0.58116
728.99736	0.41942
727.06880	0.27173
725.14023	0.10010
723.21167	-0.05637
721.28311	-0.14887
719.35454	-0.14584
717.42598	-0.06295
715.49741	0.06765
713.56885	0.23891
711.64028	0.23883
709.71172	0.08849
707.78315	0.01110
705.85459	0.06782
703.92603	0.13811
701.99746	0.17078
700.06890	0.17431
698.14033	0.17735
696.21177	0.21745
694.28320	0.31195
692.35464	0.37542
690.42607	0.32256
688.49751	0.28282
686.56895	0.30253
684.64038	0.28299
682.71182	0.15884
680.78325	0.08100
678.85469	0.12203
676.92612	0.24891
674.99756	0.36828
673.06899	0.50111
671.14043	0.52991
669.21187	0.38266
667.28330	0.30420
665.35474	0.28403
663.42617	0.26182
661.49761	0.27731
659.56904	0.34066
657.64048	0.35855
655.71191	0.32082
653.78335	0.29938
651.85479	0.37357
649.92622	0.47038
647.99766	0.33909
646.06909	0.17546
644.14053	0.12000
642.21196	0.15831
640.28340	0.22882
638.35483	0.24704
636.42627	0.25305
634.49771	0.27568
632.56914	0.27155
630.64058	0.25246
628.71201	0.26089
626.78345	0.30770
624.85488	0.36053
622.92632	0.31141
620.99775	0.21740
619.06919	0.17890
617.14062	0.19578
615.21206	0.21295
613.28350	0.21997
611.35493	0.23022
609.42637	0.26753
607.49780	0.31571
605.56924	0.32850
603.64067	0.27479
601.71211	0.20157
599.78354	0.19361
597.85498	0.22276
595.92642	0.22461
593.99785	0.23667
592.06929	0.27224
590.14072	0.27522
588.21216	0.25871
586.28359	0.28167
584.35503	0.29693
582.42646	0.24375
580.49790	0.19907
578.56934	0.19047
576.64077	0.21523
574.71221	0.25561
572.78364	0.28058
570.85508	0.28109
568.92651	0.22262
566.99795	0.15017
565.06938	0.18504
563.14082	0.34836
561.21226	0.43878
559.28369	0.32078
557.35513	0.20409
555.42656	0.16136
553.49800	0.19887
551.56943	0.31826
549.64087	0.45913
547.71230	0.42747
545.78374	0.31412
543.85518	0.22409
541.92661	0.15733
539.99805	0.14661
538.06948	0.17094
536.14092	0.16391
534.21235	0.14584
532.28379	0.14720
530.35522	0.16332
528.42666	0.18011
526.49810	0.18898
524.56953	0.20806
522.64097	0.19879
520.71240	0.13051
518.78384	0.07144
516.85527	0.06839
514.92671	0.11875
512.99814	0.23529
511.06958	0.32893
509.14102	0.33220
507.21245	0.32424
505.28389	0.28698
503.35532	0.20284
501.42676	0.15347
499.49819	0.14782
