3997.91411	0.07001
3995.98555	0.07034
3994.05698	0.07107
3992.12842	0.07150
3990.19985	0.07170
3988.27129	0.07207
3986.34272	0.07233
3984.41416	0.07222
3982.48560	0.07216
3980.55703	0.07251
3978.62847	0.07293
3976.69990	0.07340
3974.77134	0.07398
3972.84277	0.07441
3970.91421	0.07446
3968.98564	0.07445
3967.05708	0.07480
3965.12852	0.07491
3963.19995	0.07463
3961.27139	0.07462
3959.34282	0.07500
3957.41426	0.07521
3955.48569	0.07491
3953.55713	0.07458
3951.62856	0.07487
3949.70000	0.07572
3947.77144	0.07645
3945.84287	0.07664
3943.91431	0.07671
3941.98574	0.07670
3940.05718	0.07601
3938.12861	0.07524
3936.20005	0.07532
3934.27148	0.07614
3932.34292	0.07710
3930.41436	0.07753
3928.48579	0.07721
3926.55723	0.07680
3924.62866	0.07686
3922.70010	0.07678
3920.77153	0.07643
3918.84297	0.07656
3916.91440	0.07678
3914.98584	0.07607
3913.05728	0.07457
3911.12871	0.07343
3909.20015	0.07355
3907.27158	0.07494
3905.34302	0.07717
3903.41445	0.07946
3901.48589	0.08059
3899.55732	0.08017
3897.62876	0.07834
3895.70020	0.07634
3893.77163	0.07599
3891.84307	0.07708
3889.91450	0.07724
3887.98594	0.07607
3886.05737	0.07621
3884.12881	0.07782
3882.20024	0.07878
3880.27168	0.07898
3878.34312	0.07841
3876.41455	0.07745
3874.48599	0.07766
3872.55742	0.07911
3870.62886	0.08099
3868.70029	0.08200
3866.77173	0.08101
3864.84316	0.08029
3862.91460	0.08079
3860.98604	0.08055
3859.05747	0.07976
3857.12891	0.08005
3855.20034	0.08227
3853.27178	0.08680
3851.34321	0.08891
3849.41465	0.08566
3847.48608	0.08267
3845.55752	0.08195
3843.62896	0.08333
3841.70039	0.08552
3839.77183	0.08789
3837.84326	0.09043
3835.91470	0.09117
3833.98613	0.09017
3832.05757	0.08936
3830.12900	0.08887
3828.20044	0.08873
3826.27187	0.08962
3824.34331	0.09128
3822.41475	0.09357
3820.48618	0.09646
3818.55762	0.09702
3816.62905	0.09604
3814.70049	0.09576
3812.77192	0.09517
3810.84336	0.09482
3808.91479	0.09584
3806.98623	0.09812
3805.05767	0.10030
3803.12910	0.10208
3801.20054	0.10500
3799.27197	0.10722
3797.34341	0.10711
3795.41484	0.10661
3793.48628	0.10589
3791.55771	0.10562
3789.62915	0.10642
3787.70059	0.10790
3785.77202	0.11015
3783.84346	0.11243
3781.91489	0.11372
3779.98633	0.11549
3778.05776	0.11814
3776.12920	0.11923
3774.20063	0.11913
3772.27207	0.12003
3770.34351	0.12285
3768.41494	0.12652
3766.48638	0.12898
3764.55781	0.13047
3762.62925	0.13171
3760.70068	0.13366
3758.77212	0.13708
3756.84355	0.14049
3754.91499	0.14271
3752.98643	0.14526
3751.05786	0.14993
3749.12930	0.15545
3747.20073	0.15817
3745.27217	0.16023
3743.34360	0.16395
3741.41504	0.16751
3739.48647	0.17040
3737.55791	0.17454
3735.62935	0.18130
3733.70078	0.18907
3731.77222	0.19383
3729.84365	0.19656
3727.91509	0.19989
3725.98652	0.20559
3724.05796	0.21292
3722.12939	0.21963
3720.20083	0.22539
3718.27227	0.23023
3716.34370	0.23515
3714.41514	0.24171
3712.48657	0.25227
3710.55801	0.26835
3708.62944	0.28354
3706.70088	0.29371
3704.77231	0.30351
3702.84375	0.31644
3700.91519	0.33374
3698.98662	0.35229
3697.05806	0.36973
3695.12949	0.38822
3693.20093	0.40805
3691.27236	0.43009
3689.34380	0.45880
3687.41523	0.49290
3685.48667	0.52171
3683.55811	0.54683
3681.62954	0.57466
3679.70098	0.60644
3677.77241	0.64017
3675.84385	0.68070
3673.91528	0.73479
3671.98672	0.77752
3670.05815	0.81503
3668.12959	0.86737
3666.20103	0.91469
3664.27246	0.95411
3662.34390	0.99750
3660.41533	1.04538
3658.48677	1.09283
3656.55820	1.14273
3654.62964	1.19778
3652.70107	1.24419
3650.77251	1.28538
3648.84395	1.34269
3646.91538	1.41161
3644.98682	1.46098
3643.05825	1.49903
3641.12969	1.53842
3639.20112	1.58205
3637.27256	1.62606
3635.34399	1.66935
3633.41543	1.71336
3631.48687	1.75456
3629.55830	1.79618
3627.62974	1.85096
3625.70117	1.90109
3623.77261	1.93376
3621.84404	1.96550
3619.91548	2.00342
3617.98691	2.04999
3616.05835	2.09387
3614.12979	2.12960
3612.20122	2.16770
3610.27266	2.20684
3608.34409	2.24581
3606.41553	2.28761
3604.48696	2.32772
3602.55840	2.36340
3600.62983	2.40101
3598.70127	2.44177
3596.77271	2.48122
3594.84414	2.52117
3592.91558	2.56369
3590.98701	2.60368
3589.05845	2.63936
3587.12988	2.68101
3585.20132	2.72780
3583.27275	2.76851
3581.34419	2.80526
3579.41562	2.84372
3577.48706	2.88535
3575.55850	2.92770
3573.62993	2.97050
3571.70137	3.01240
3569.77280	3.05316
3567.84424	3.09743
3565.91567	3.15079
3563.98711	3.20027
3562.05854	3.23973
3560.12998	3.27945
3558.20142	3.32228
3556.27285	3.36739
3554.34429	3.41257
3552.41572	3.45952
3550.48716	3.50859
3548.55859	3.55463
3546.63003	3.59754
3544.70146	3.64491
3542.77290	3.69506
3540.84434	3.74008
3538.91577	3.78311
3536.98721	3.82863
3535.05864	3.87761
3533.13008	3.92674
3531.20151	3.97445
3529.27295	4.02127
3527.34438	4.06822
3525.41582	4.11551
3523.48726	4.16518
3521.55869	4.21847
3519.63013	4.26718
3517.70156	4.30903
3515.77300	4.35128
3513.84443	4.40051
3511.91587	4.45417
3509.98730	4.50522
3508.05874	4.55130
3506.13018	4.59392
3504.20161	4.63747
3502.27305	4.68499
3500.34448	4.73324
3498.41592	4.77966
3496.48735	4.82606
3494.55879	4.87519
3492.63022	4.93031
3490.70166	4.98504
3488.77310	5.03181
3486.84453	5.07541
3484.91597	5.12350
3482.98740	5.17571
3481.05884	5.22105
3479.13027	5.25595
3477.20171	5.29628
3475.27314	5.34757
3473.34458	5.39911
3471.41602	5.45005
3469.48745	5.50629
3467.55889	5.56267
3465.63032	5.61444
3463.70176	5.66571
3461.77319	5.71495
3459.84463	5.76177
3457.91606	5.81020
3455.98750	5.85697
3454.05894	5.89870
3452.13037	5.94803
3450.20181	6.00771
3448.27324	6.05796
3446.34468	6.10145
3444.41611	6.15552
3442.48755	6.21939
3440.55898	6.27738
3438.63042	6.32878
3436.70186	6.37880
3434.77329	6.41828
3432.84473	6.45442
3430.91616	6.50480
3428.98760	6.56602
3427.05903	6.62623
3425.13047	6.69098
3423.20190	6.74318
3421.27334	6.77250
3419.34478	6.80874
3417.41621	6.85248
3415.48765	6.88203
3413.55908	6.91153
3411.63052	6.96639
3409.70195	7.04650
3407.77339	7.12677
3405.84482	7.18227
3403.91626	7.22842
3401.98770	7.25465
3400.05913	7.28688
3398.13057	7.35777
3396.20200	7.39529
3394.27344	7.37797
3392.34487	7.37365
3390.41631	7.43541
3388.48774	7.54065
3386.55918	7.63541
3384.63062	7.68042
3382.70205	7.70473
3380.77349	7.73971
3378.84492	7.74492
3376.91636	7.75288
3374.98779	7.80505
3373.05923	7.85701
3371.13066	7.87951
3369.20210	7.90407
3367.27354	7.90398
3365.34497	7.91338
3363.41641	7.99583
3361.48784	8.06239
3359.55928	8.07009
3357.63071	8.09498
3355.70215	8.11984
3353.77358	8.07116
3351.84502	8.04254
3349.91646	8.08161
3347.98789	8.09850
3346.05933	8.06462
3344.13076	8.05205
3342.20220	8.07934
3340.27363	8.11747
3338.34507	8.20467
3336.41650	8.27435
3334.48794	8.25978
3332.55937	8.24405
3330.63081	8.25769
3328.70225	8.23199
3326.77368	8.15159
3324.84512	8.08068
3322.91655	8.10554
3320.98799	8.23113
3319.05942	8.30367
3317.13086	8.29691
3315.20229	8.28192
3313.27373	8.25263
3311.34517	8.18503
3309.41660	8.13452
3307.48804	8.18294
3305.55947	8.23538
3303.63091	8.17981
3301.70234	8.09399
3299.77378	8.09348
3297.84521	8.17686
3295.91665	8.26207
3293.98809	8.26299
3292.05952	8.22791
3290.13096	8.29257
3288.20239	8.44757
3286.27383	8.51091
3284.34526	8.42281
3282.41670	8.31578
3280.48813	8.26199
3278.55957	8.34117
3276.63101	8.42780
3274.70244	8.29898
3272.77388	8.20821
3270.84531	8.38478
3268.91675	8.63018
3266.98818	8.60304
3265.05962	8.41618
3263.13105	8.30185
3261.20249	8.28927
3259.27393	8.34163
3257.34536	8.44054
3255.41680	8.56036
3253.48823	8.63946
3251.55967	8.56456
3249.63110	8.42215
3247.70254	8.39461
3245.77397	8.43474
3243.84541	8.48943
3241.91685	8.55087
3239.98828	8.51210
3238.05972	8.35911
3236.13115	8.27961
3234.20259	8.33773
3232.27402	8.39419
3230.34546	8.41079
3228.41689	8.41754
3226.48833	8.35983
3224.55977	8.21561
3222.63120	8.11256
3220.70264	8.16504
3218.77407	8.30511
3216.84551	8.36988
3214.91694	8.28972
3212.98838	8.14457
3211.05981	8.06337
3209.13125	8.03874
3207.20269	7.96373
3205.27412	7.87294
3203.34556	7.87061
3201.41699	7.94874
3199.48843	7.97530
3197.55986	7.89360
3195.63130	7.81387
3193.70273	7.75824
3191.77417	7.64500
3189.84561	7.50538
3187.91704	7.45011
3185.98848	7.47059
3184.05991	7.47842
3182.13135	7.43589
3180.20278	7.34237
3178.27422	7.24796
3176.34565	7.22979
3174.41709	7.27854
3172.48853	7.28090
3170.55996	7.16568
3168.63140	7.00949
3166.70283	6.90376
3164.77427	6.84752
3162.84570	6.78410
3160.91714	6.70741
3158.98857	6.65756
3157.06001	6.61186
3155.13145	6.53496
3153.20288	6.45804
3151.27432	6.38654
3149.34575	6.29113
3147.41719	6.19723
3145.48862	6.13441
3143.56006	6.08433
3141.63149	6.02241
3139.70293	5.94476
3137.77437	5.86776
3135.84580	5.79762
3133.91724	5.73126
3131.98867	5.66342
3130.06011	5.57972
3128.13154	5.49392
3126.20298	5.43042
3124.27441	5.37789
3122.34585	5.31483
3120.41729	5.24239
3118.48872	5.16604
3116.56016	5.08752
3114.63159	5.01378
3112.70303	4.94626
3110.77446	4.87833
3108.84590	4.80641
3106.91733	4.73365
3104.98877	4.66606
3103.06021	4.60302
3101.13164	4.53777
3099.20308	4.46830
3097.27451	4.39779
3095.34595	4.33074
3093.41738	4.26487
3091.48882	4.19413
3089.56025	4.12319
3087.63169	4.05769
3085.70312	3.99566
3083.77456	3.93499
3081.84600	3.87330
3079.91743	3.81026
3077.98887	3.74973
3076.06030	3.69108
3074.13174	3.63082
3072.20317	3.57050
3070.27461	3.51266
3068.34604	3.45577
3066.41748	3.39916
3064.48892	3.34468
3062.56035	3.29088
3060.63179	3.23652
3058.70322	3.18274
3056.77466	3.12889
3054.84609	3.07543
3052.91753	3.02407
3050.98896	2.97389
3049.06040	2.92398
3047.13184	2.87455
3045.20327	2.82492
3043.27471	2.77602
3041.34614	2.72916
3039.41758	2.68296
3037.48901	2.63654
3035.56045	2.59075
3033.63188	2.54615
3031.70332	2.50243
3029.77476	2.45875
3027.84619	2.41542
3025.91763	2.37329
3023.98906	2.33120
3022.06050	2.28868
3020.13193	2.24783
3018.20337	2.20926
3016.27480	2.17128
3014.34624	2.13297
3012.41768	2.09481
3010.48911	2.05742
3008.56055	2.02060
3006.63198	1.98419
3004.70342	1.94880
3002.77485	1.91422
3000.84629	1.87969
2998.91772	1.84544
2996.98916	1.81182
2995.06060	1.77905
2993.13203	1.74746
2991.20347	1.71699
2989.27490	1.68732
2987.34634	1.65808
2985.41777	1.62897
2983.48921	1.59974
2981.56064	1.57049
2979.63208	1.54168
2977.70352	1.51367
2975.77495	1.48657
2973.84639	1.46009
2971.91782	1.43396
2969.98926	1.40810
2968.06069	1.38245
2966.13213	1.35730
2964.20356	1.33272
2962.27500	1.30849
2960.34644	1.28463
2958.41787	1.26130
2956.48931	1.23839
2954.56074	1.21567
2952.63218	1.19328
2950.70361	1.17123
2948.77505	1.14944
2946.84648	1.12801
2944.91792	1.10693
2942.98936	1.08623
2941.06079	1.06595
2939.13223	1.04642
2937.20366	1.02779
2935.27510	1.00928
2933.34653	0.99037
2931.41797	0.97164
2929.48940	0.95349
2927.56084	0.93593
2925.63228	0.91920
2923.70371	0.90302
2921.77515	0.88703
2919.84658	0.87129
2917.91802	0.85528
2915.98945	0.83890
2914.06089	0.82304
2912.13232	0.80790
2910.20376	0.79322
2908.27520	0.77888
2906.34663	0.76495
2904.41807	0.75167
2902.48950	0.73900
2900.56094	0.72636
2898.63237	0.71356
2896.70381	0.70101
2894.77524	0.68884
2892.84668	0.67683
2890.91812	0.66514
2888.98955	0.65401
2887.06099	0.64319
2885.13242	0.63220
2883.20386	0.62132
2881.27529	0.61102
2879.34673	0.60098
2877.41816	0.59095
2875.48960	0.58116
2873.56104	0.57161
2871.63247	0.56186
2869.70391	0.55175
2867.77534	0.54174
2865.84678	0.53203
2863.91821	0.52247
2861.98965	0.51311
2860.06108	0.50398
2858.13252	0.49514
2856.20396	0.48673
2854.27539	0.47867
2852.34683	0.47055
2850.41826	0.46245
2848.48970	0.45469
2846.56113	0.44729
2844.63257	0.44041
2842.70400	0.43403
2840.77544	0.42793
2838.84687	0.42217
2836.91831	0.41648
2834.98975	0.41038
2833.06118	0.40416
2831.13262	0.39832
2829.20405	0.39267
2827.27549	0.38701
2825.34692	0.38147
2823.41836	0.37592
2821.48979	0.37034
2819.56123	0.36501
2817.63267	0.35974
2815.70410	0.35433
2813.77554	0.34891
2811.84697	0.34353
2809.91841	0.33840
2807.98984	0.33362
2806.06128	0.32888
2804.13271	0.32395
2802.20415	0.31911
2800.27559	0.31469
2798.34702	0.31040
2796.41846	0.30588
2794.48989	0.30139
2792.56133	0.29722
2790.63276	0.29322
2788.70420	0.28918
2786.77563	0.28515
2784.84707	0.28130
2782.91851	0.27762
2780.98994	0.27406
2779.06138	0.27050
2777.13281	0.26684
2775.20425	0.26312
2773.27568	0.25951
2771.34712	0.25613
2769.41855	0.25290
2767.48999	0.24964
2765.56143	0.24649
2763.63286	0.24343
2761.70430	0.24030
2759.77573	0.23718
2757.84717	0.23425
2755.91860	0.23156
2753.99004	0.22894
2752.06147	0.22615
2750.13291	0.22332
2748.20435	0.22068
2746.27578	0.21820
2744.34722	0.21579
2742.41865	0.21344
2740.49009	0.21117
2738.56152	0.20885
2736.63296	0.20642
2734.70439	0.20408
2732.77583	0.20202
2730.84727	0.20011
2728.91870	0.19808
2726.99014	0.19602
2725.06157	0.19397
2723.13301	0.19177
2721.20444	0.18958
2719.27588	0.18771
2717.34731	0.18612
2715.41875	0.18462
2713.49019	0.18306
2711.56162	0.18138
2709.63306	0.17966
2707.70449	0.17805
2705.77593	0.17648
2703.84736	0.17481
2701.91880	0.17324
2699.99023	0.17198
2698.06167	0.17085
2696.13311	0.16970
2694.20454	0.16849
2692.27598	0.16710
2690.34741	0.16558
2688.41885	0.16424
2686.49028	0.16325
2684.56172	0.16246
2682.63315	0.16159
2680.70459	0.16055
2678.77603	0.15947
2676.84746	0.15851
2674.91890	0.15761
2672.99033	0.15657
2671.06177	0.15540
2669.13320	0.15435
2667.20464	0.15359
2665.27607	0.15301
2663.34751	0.15231
2661.41895	0.15143
2659.49038	0.15054
2657.56182	0.14979
2655.63325	0.14913
2653.70469	0.14848
2651.77612	0.14787
2649.84756	0.14735
2647.91899	0.14698
2645.99043	0.14667
2644.06187	0.14615
2642.13330	0.14554
2640.20474	0.14508
2638.27617	0.14469
2636.34761	0.14429
2634.41904	0.14382
2632.49048	0.14340
2630.56191	0.14315
2628.63335	0.14300
2626.70479	0.14284
2624.77622	0.14259
2622.84766	0.14229
2620.91909	0.14205
2618.99053	0.14185
2617.06196	0.14158
2615.13340	0.14136
2613.20483	0.14133
2611.27627	0.14140
2609.34771	0.14149
2607.41914	0.14163
2605.49058	0.14178
2603.56201	0.14187
2601.63345	0.14187
2599.70488	0.14180
2597.77632	0.14175
2595.84775	0.14190
2593.91919	0.14212
2591.99062	0.14223
2590.06206	0.14232
2588.13350	0.14251
2586.20493	0.14276
2584.27637	0.14304
2582.34780	0.14329
2580.41924	0.14355
2578.49067	0.14390
2576.56211	0.14423
2574.63354	0.14448
2572.70498	0.14484
2570.77642	0.14534
2568.84785	0.14579
2566.91929	0.14610
2564.99072	0.14637
2563.06216	0.14669
2561.13359	0.14720
2559.20503	0.14790
2557.27646	0.14862
2555.34790	0.14919
2553.41934	0.14962
2551.49077	0.15015
2549.56221	0.15082
2547.63364	0.15153
2545.70508	0.15218
2543.77651	0.15280
2541.84795	0.15343
2539.91938	0.15406
2537.99082	0.15468
2536.06226	0.15525
2534.13369	0.15582
2532.20513	0.15650
2530.27656	0.15730
2528.34800	0.15808
2526.41943	0.15887
2524.49087	0.15972
2522.56230	0.16045
2520.63374	0.16098
2518.70518	0.16159
2516.77661	0.16242
2514.84805	0.16324
2512.91948	0.16399
2510.99092	0.16486
2509.06235	0.16578
2507.13379	0.16663
2505.20522	0.16739
2503.27666	0.16825
2501.34810	0.16928
2499.41953	0.17024
2497.49097	0.17111
2495.56240	0.17195
2493.63384	0.17278
2491.70527	0.17361
2489.77671	0.17443
2487.84814	0.17533
2485.91958	0.17631
2483.99102	0.17715
2482.06245	0.17790
2480.13389	0.17877
2478.20532	0.17980
2476.27676	0.18084
2474.34819	0.18174
2472.41963	0.18262
2470.49106	0.18362
2468.56250	0.18453
2466.63394	0.18539
2464.70537	0.18633
2462.77681	0.18726
2460.84824	0.18822
2458.91968	0.18929
2456.99111	0.19035
2455.06255	0.19137
2453.13398	0.19239
2451.20542	0.19338
2449.27686	0.19433
2447.34829	0.19526
2445.41973	0.19617
2443.49116	0.19718
2441.56260	0.19823
2439.63403	0.19918
2437.70547	0.20013
2435.77690	0.20118
2433.84834	0.20233
2431.91978	0.20344
2429.99121	0.20447
2428.06265	0.20550
2426.13408	0.20662
2424.20552	0.20782
2422.27695	0.20905
2420.34839	0.21022
2418.41982	0.21124
2416.49126	0.21215
2414.56270	0.21316
2412.63413	0.21430
2410.70557	0.21545
2408.77700	0.21664
2406.84844	0.21790
2404.91987	0.21918
2402.99131	0.22035
2401.06274	0.22147
2399.13418	0.22268
2397.20562	0.22394
2395.27705	0.22523
2393.34849	0.22657
2391.41992	0.22800
2389.49136	0.22942
2387.56279	0.23114
2385.63423	0.23377
2383.70566	0.23749
2381.77710	0.24218
2379.84854	0.24783
2377.91997	0.25437
2375.99141	0.26176
2374.06284	0.27038
2372.13428	0.28075
2370.20571	0.29291
2368.27715	0.30570
2366.34858	0.31686
2364.42002	0.32579
2362.49146	0.33303
2360.56289	0.33806
2358.63433	0.33967
2356.70576	0.33560
2354.77720	0.32693
2352.84863	0.31717
2350.92007	0.30797
2348.99150	0.30256
2347.06294	0.30306
2345.13437	0.30982
2343.20581	0.31969
2341.27725	0.32627
2339.34868	0.32834
2337.42012	0.32829
2335.49155	0.32820
2333.56299	0.32812
2331.63442	0.32791
2329.70586	0.32808
2327.77729	0.32810
2325.84873	0.32639
2323.92017	0.32355
2321.99160	0.32106
2320.06304	0.31900
2318.13447	0.31684
2316.20591	0.31479
2314.27734	0.31351
2312.34878	0.31327
2310.42021	0.31340
2308.49165	0.31298
2306.56309	0.31201
2304.63452	0.31113
2302.70596	0.31094
2300.77739	0.31143
2298.84883	0.31217
2296.92026	0.31301
2294.99170	0.31380
2293.06313	0.31440
2291.13457	0.31503
2289.20601	0.31599
2287.27744	0.31707
2285.34888	0.31808
2283.42031	0.31934
2281.49175	0.32111
2279.56318	0.32326
2277.63462	0.32550
2275.70605	0.32769
2273.77749	0.32985
2271.84893	0.33205
2269.92036	0.33421
2267.99180	0.33623
2266.06323	0.33818
2264.13467	0.34005
2262.20610	0.34193
2260.27754	0.34387
2258.34897	0.34585
2256.42041	0.34785
2254.49185	0.34984
2252.56328	0.35181
2250.63472	0.35373
2248.70615	0.35558
2246.77759	0.35756
2244.84902	0.35968
2242.92046	0.36180
2240.99189	0.36388
2239.06333	0.36607
2237.13477	0.36838
2235.20620	0.37066
2233.27764	0.37291
2231.34907	0.37515
2229.42051	0.37729
2227.49194	0.37929
2225.56338	0.38130
2223.63481	0.38344
2221.70625	0.38556
2219.77769	0.38764
2217.84912	0.38981
2215.92056	0.39201
2213.99199	0.39421
2212.06343	0.39644
2210.13486	0.39861
2208.20630	0.40068
2206.27773	0.40268
2204.34917	0.40466
2202.42061	0.40670
2200.49204	0.40871
2198.56348	0.41055
2196.63491	0.41246
2194.70635	0.41459
2192.77778	0.41661
2190.84922	0.41844
2188.92065	0.42026
2186.99209	0.42211
2185.06353	0.42399
2183.13496	0.42585
2181.20640	0.42757
2179.27783	0.42914
2177.34927	0.43069
2175.42070	0.43223
2173.49214	0.43374
2171.56357	0.43516
2169.63501	0.43649
2167.70645	0.43784
2165.77788	0.43922
2163.84932	0.44049
2161.92075	0.44163
2159.99219	0.44271
2158.06362	0.44371
2156.13506	0.44463
2154.20649	0.44555
2152.27793	0.44652
2150.34937	0.44740
2148.42080	0.44808
2146.49224	0.44860
2144.56367	0.44904
2142.63511	0.44946
2140.70654	0.44986
2138.77798	0.45019
2136.84941	0.45041
2134.92085	0.45064
2132.99229	0.45083
2131.06372	0.45076
2129.13516	0.45049
2127.20659	0.45019
2125.27803	0.44989
2123.34946	0.44958
2121.42090	0.44924
2119.49233	0.44881
2117.56377	0.44830
2115.63521	0.44762
2113.70664	0.44681
2111.77808	0.44599
2109.84951	0.44514
2107.92095	0.44418
2105.99238	0.44321
2104.06382	0.44221
2102.13525	0.44104
2100.20669	0.43972
2098.27812	0.43838
2096.34956	0.43700
2094.42100	0.43556
2092.49243	0.43408
2090.56387	0.43246
2088.63530	0.43070
2086.70674	0.42902
2084.77817	0.42741
2082.84961	0.42573
2080.92104	0.42386
2078.99248	0.42186
2077.06392	0.41981
2075.13535	0.41775
2073.20679	0.41572
2071.27822	0.41370
2069.34966	0.41158
2067.42109	0.40927
2065.49253	0.40693
2063.56396	0.40460
2061.63540	0.40226
2059.70684	0.39984
2057.77827	0.39734
2055.84971	0.39476
2053.92114	0.39216
2051.99258	0.38978
2050.06401	0.38756
2048.13545	0.38517
2046.20688	0.38248
2044.27832	0.37972
2042.34976	0.37707
2040.42119	0.37446
2038.49263	0.37179
2036.56406	0.36909
2034.63550	0.36644
2032.70693	0.36377
2030.77837	0.36105
2028.84980	0.35825
2026.92124	0.35553
2024.99268	0.35289
2023.06411	0.35027
2021.13555	0.34763
2019.20698	0.34503
2017.27842	0.34246
2015.34985	0.33969
2013.42129	0.33673
2011.49272	0.33385
2009.56416	0.33120
2007.63560	0.32859
2005.70703	0.32589
2003.77847	0.32316
2001.84990	0.32052
1999.92134	0.31805
1997.99277	0.31565
1996.06421	0.31316
1994.13564	0.31074
1992.20708	0.30847
1990.27852	0.30610
1988.34995	0.30358
1986.42139	0.30100
1984.49282	0.29847
1982.56426	0.29615
1980.63569	0.29388
1978.70713	0.29148
1976.77856	0.28910
1974.85000	0.28690
1972.92144	0.28483
1970.99287	0.28281
1969.06431	0.28091
1967.13574	0.27900
1965.20718	0.27684
1963.27861	0.27464
1961.35005	0.27271
1959.42148	0.27090
1957.49292	0.26904
1955.56436	0.26714
1953.63579	0.26526
1951.70723	0.26341
1949.77866	0.26171
1947.85010	0.26023
1945.92153	0.25895
1943.99297	0.25780
1942.06440	0.25655
1940.13584	0.25493
1938.20728	0.25322
1936.27871	0.25176
1934.35015	0.25048
1932.42158	0.24920
1930.49302	0.24785
1928.56445	0.24663
1926.63589	0.24565
1924.70732	0.24493
1922.77876	0.24416
1920.85020	0.24315
1918.92163	0.24226
1916.99307	0.24143
1915.06450	0.24036
1913.13594	0.23932
1911.20737	0.23860
1909.27881	0.23805
1907.35024	0.23737
1905.42168	0.23655
1903.49312	0.23584
1901.56455	0.23520
1899.63599	0.23453
1897.70742	0.23402
1895.77886	0.23379
1893.85029	0.23363
1891.92173	0.23339
1889.99316	0.23326
1888.06460	0.23291
1886.13604	0.23236
1884.20747	0.23200
1882.27891	0.23176
1880.35034	0.23159
1878.42178	0.23156
1876.49321	0.23164
1874.56465	0.23165
1872.63608	0.23180
1870.70752	0.23235
1868.77896	0.23328
1866.85039	0.23355
1864.92183	0.23291
1862.99326	0.23247
1861.06470	0.23261
1859.13613	0.23301
1857.20757	0.23332
1855.27900	0.23373
1853.35044	0.23429
1851.42187	0.23489
1849.49331	0.23555
1847.56475	0.23645
1845.63618	0.23764
1843.70762	0.23874
1841.77905	0.23907
1839.85049	0.23910
1837.92192	0.23980
1835.99336	0.24076
1834.06479	0.24163
1832.13623	0.24271
1830.20767	0.24446
1828.27910	0.24615
1826.35054	0.24714
1824.42197	0.24819
1822.49341	0.24909
1820.56484	0.24999
1818.63628	0.25130
1816.70771	0.25301
1814.77915	0.25471
1812.85059	0.25656
1810.92202	0.25878
1808.99346	0.26089
1807.06489	0.26265
1805.13633	0.26437
1803.20776	0.26666
1801.27920	0.26954
1799.35063	0.27255
1797.42207	0.27495
1795.49351	0.27723
1793.56494	0.28013
1791.63638	0.28387
1789.70781	0.28703
1787.77925	0.28920
1785.85068	0.29212
1783.92212	0.29580
1781.99355	0.29983
1780.06499	0.30408
1778.13643	0.30826
1776.20786	0.31228
1774.27930	0.31698
1772.35073	0.32331
1770.42217	0.32959
1768.49360	0.33439
1766.56504	0.33904
1764.63647	0.34408
1762.70791	0.35004
1760.77935	0.35779
1758.85078	0.36499
1756.92222	0.37202
1754.99365	0.37955
1753.06509	0.38651
1751.13652	0.39519
1749.20796	0.40618
1747.27939	0.41673
1745.35083	0.42573
1743.42227	0.43522
1741.49370	0.44581
1739.56514	0.45837
1737.63657	0.47075
1735.70801	0.48150
1733.77944	0.49795
1731.85088	0.51754
1729.92231	0.53247
1727.99375	0.54739
1726.06519	0.56386
1724.13662	0.58239
1722.20806	0.60243
1720.27949	0.62090
1718.35093	0.64285
1716.42236	0.67515
1714.49380	0.70483
1712.56523	0.72833
1710.63667	0.75158
1708.70811	0.77717
1706.77954	0.80637
1704.85098	0.84099
1702.92241	0.87175
1700.99385	0.90235
1699.06528	0.94806
1697.13672	0.98959
1695.20815	1.03111
1693.27959	1.07094
1691.35103	1.10326
1689.42246	1.14076
1687.49390	1.18015
1685.56533	1.21841
1683.63677	1.27806
1681.70820	1.33902
1679.77964	1.37711
1677.85107	1.41371
1675.92251	1.45675
1673.99395	1.51026
1672.06538	1.55761
1670.13682	1.60407
1668.20825	1.66277
1666.27969	1.70830
1664.35112	1.74642
1662.42256	1.79437
1660.49399	1.84838
1658.56543	1.89082
1656.63687	1.92512
1654.70830	1.95721
1652.77974	2.01046
1650.85117	2.06164
1648.92261	2.08247
1646.99404	2.11272
1645.06548	2.14759
1643.13691	2.16875
1641.20835	2.18138
1639.27979	2.19343
1637.35122	2.20307
1635.42266	2.20862
1633.49409	2.20511
1631.56553	2.19300
1629.63696	2.17842
1627.70840	2.15386
1625.77983	2.12332
1623.85127	2.08526
1621.92271	2.03909
1619.99414	1.99743
1618.06558	1.95675
1616.13701	1.89764
1614.20845	1.83516
1612.27988	1.78786
1610.35132	1.74023
1608.42275	1.68891
1606.49419	1.63751
1604.56562	1.58895
1602.63706	1.54133
1600.70850	1.49512
1598.77993	1.45300
1596.85137	1.41303
1594.92280	1.37364
1592.99424	1.33515
1591.06567	1.29948
1589.13711	1.26555
1587.20854	1.23327
1585.27998	1.20296
1583.35142	1.17436
1581.42285	1.14804
1579.49429	1.12569
1577.56572	1.10557
1575.63716	1.07986
1573.70859	1.05645
1571.78003	1.04138
1569.85146	1.02503
1567.92290	1.00550
1565.99434	0.99011
1564.06577	0.97753
1562.13721	0.96729
1560.20864	0.95983
1558.28008	0.94703
1556.35151	0.93242
1554.42295	0.92255
1552.49438	0.91353
1550.56582	0.90492
1548.63726	0.89585
1546.70869	0.88751
1544.78013	0.87971
1542.85156	0.87131
1540.92300	0.86078
1538.99443	0.84393
1537.06587	0.83047
1535.13730	0.82199
1533.20874	0.81200
1531.28018	0.80094
1529.35161	0.79273
1527.42305	0.78531
1525.49448	0.77757
1523.56592	0.77086
1521.63735	0.76428
1519.70879	0.75647
1517.78022	0.74935
1515.85166	0.74188
1513.92310	0.73450
1511.99453	0.72866
1510.06597	0.72415
1508.13740	0.72055
1506.20884	0.71350
1504.28027	0.70536
1502.35171	0.70052
1500.42314	0.69685
1498.49458	0.69340
1496.56602	0.68928
1494.63745	0.68467
1492.70889	0.68118
1490.78032	0.67889
1488.85176	0.67623
1486.92319	0.67249
1484.99463	0.66897
1483.06606	0.66629
1481.13750	0.66404
1479.20894	0.66210
1477.28037	0.66097
1475.35181	0.66052
1473.42324	0.65967
1471.49468	0.65658
1469.56611	0.65267
1467.63755	0.64992
1465.70898	0.64803
1463.78042	0.64600
1461.85186	0.64387
1459.92329	0.64253
1457.99473	0.64180
1456.06616	0.63960
1454.13760	0.63576
1452.20903	0.63254
1450.28047	0.63000
1448.35190	0.62757
1446.42334	0.62475
1444.49478	0.62207
1442.56621	0.61992
1440.63765	0.61814
1438.70908	0.61670
1436.78052	0.61516
1434.85195	0.61292
1432.92339	0.61064
1430.99482	0.60888
1429.06626	0.60724
1427.13770	0.60566
1425.20913	0.60458
1423.28057	0.60382
1421.35200	0.60310
1419.42344	0.60259
1417.49487	0.60155
1415.56631	0.59951
1413.63774	0.59765
1411.70918	0.59638
1409.78062	0.59536
1407.85205	0.59443
1405.92349	0.59379
1403.99492	0.59303
1402.06636	0.59187
1400.13779	0.59090
1398.20923	0.59011
1396.28066	0.58895
1394.35210	0.58709
1392.42354	0.58454
1390.49497	0.58214
1388.56641	0.58027
1386.63784	0.57839
1384.70928	0.57616
1382.78071	0.57411
1380.85215	0.57232
1378.92358	0.57066
1376.99502	0.56936
1375.06646	0.56849
1373.13789	0.56745
1371.20933	0.56624
1369.28076	0.56531
1367.35220	0.56436
1365.42363	0.56342
1363.49507	0.56274
1361.56650	0.56187
1359.63794	0.56052
1357.70937	0.55923
1355.78081	0.55819
1353.85225	0.55729
1351.92368	0.55645
1349.99512	0.55559
1348.06655	0.55466
1346.13799	0.55369
1344.20942	0.55283
1342.28086	0.55224
1340.35229	0.55196
1338.42373	0.55150
1336.49517	0.55054
1334.56660	0.54940
1332.63804	0.54844
1330.70947	0.54774
1328.78091	0.54709
1326.85234	0.54647
1324.92378	0.54609
1322.99521	0.54590
1321.06665	0.54562
1319.13809	0.54519
1317.20952	0.54462
1315.28096	0.54389
1313.35239	0.54314
1311.42383	0.54243
1309.49526	0.54175
1307.56670	0.54101
1305.63813	0.54022
1303.70957	0.53941
1301.78101	0.53859
1299.85244	0.53775
1297.92388	0.53700
1295.99531	0.53631
1294.06675	0.53554
1292.13818	0.53481
1290.20962	0.53413
1288.28105	0.53346
1286.35249	0.53287
1284.42393	0.53237
1282.49536	0.53181
1280.56680	0.53113
1278.63823	0.53037
1276.70967	0.52962
1274.78110	0.52900
1272.85254	0.52850
1270.92397	0.52803
1268.99541	0.52759
1267.06685	0.52710
1265.13828	0.52651
1263.20972	0.52602
1261.28115	0.52565
1259.35259	0.52526
1257.42402	0.52487
1255.49546	0.52461
1253.56689	0.52446
1251.63833	0.52429
1249.70977	0.52412
1247.78120	0.52395
1245.85264	0.52372
1243.92407	0.52332
1241.99551	0.52278
1240.06694	0.52220
1238.13838	0.52152
1236.20981	0.52056
1234.28125	0.51944
1232.35269	0.51846
1230.42412	0.51770
1228.49556	0.51694
1226.56699	0.51608
1224.63843	0.51528
1222.70986	0.51454
1220.78130	0.51378
1218.85273	0.51308
1216.92417	0.51245
1214.99561	0.51179
1213.06704	0.51100
1211.13848	0.51011
1209.20991	0.50921
1207.28135	0.50849
1205.35278	0.50800
1203.42422	0.50758
1201.49565	0.50720
1199.56709	0.50693
1197.63853	0.50663
1195.70996	0.50617
1193.78140	0.50557
1191.85283	0.50497
1189.92427	0.50451
1187.99570	0.50421
1186.06714	0.50404
1184.13857	0.50402
1182.21001	0.50408
1180.28145	0.50422
1178.35288	0.50469
1176.42432	0.50550
1174.49575	0.50624
1172.56719	0.50668
1170.63862	0.50705
1168.71006	0.50753
1166.78149	0.50794
1164.85293	0.50815
1162.92437	0.50826
1160.99580	0.50831
1159.06724	0.50812
1157.13867	0.50752
1155.21011	0.50652
1153.28154	0.50520
1151.35298	0.50360
1149.42441	0.50188
1147.49585	0.50003
1145.56729	0.49792
1143.63872	0.49564
1141.71016	0.49332
1139.78159	0.49098
1137.85303	0.48879
1135.92446	0.48689
1133.99590	0.48518
1132.06733	0.48361
1130.13877	0.48233
1128.21021	0.48120
1126.28164	0.48001
1124.35308	0.47889
1122.42451	0.47801
1120.49595	0.47742
1118.56738	0.47693
1116.63882	0.47659
1114.71025	0.47658
1112.78169	0.47673
1110.85312	0.47690
1108.92456	0.47732
1106.99600	0.47824
1105.06743	0.47950
1103.13887	0.48079
1101.21030	0.48225
1099.28174	0.48427
1097.35317	0.48685
1095.42461	0.48971
1093.49604	0.49305
1091.56748	0.49713
1089.63892	0.50205
1087.71035	0.50787
1085.78179	0.51436
1083.85322	0.52126
1081.92466	0.52809
1079.99609	0.53379
1078.06753	0.53738
1076.13896	0.53833
1074.21040	0.53643
1072.28184	0.53208
1070.35327	0.52598
1068.42471	0.51890
1066.49614	0.51200
1064.56758	0.50607
1062.63901	0.50094
1060.71045	0.49612
1058.78188	0.49151
1056.85332	0.48745
1054.92476	0.48408
1052.99619	0.48117
1051.06763	0.47866
1049.13906	0.47672
1047.21050	0.47548
1045.28193	0.47462
1043.35337	0.47372
1041.42480	0.47283
1039.49624	0.47220
1037.56768	0.47181
1035.63911	0.47148
1033.71055	0.47114
1031.78198	0.47093
1029.85342	0.47088
1027.92485	0.47081
1025.99629	0.47072
1024.06772	0.47080
1022.13916	0.47111
1020.21060	0.47169
1018.28203	0.47251
1016.35347	0.47338
1014.42490	0.47422
1012.49634	0.47509
1010.56777	0.47612
1008.63921	0.47741
1006.71064	0.47898
1004.78208	0.48081
1002.85352	0.48285
1000.92495	0.48525
998.99639	0.48824
997.06782	0.49183
995.13926	0.49580
993.21069	0.49963
991.28213	0.50282
989.35356	0.50522
987.42500	0.50688
985.49644	0.50801
983.56787	0.50893
981.63931	0.50986
979.71074	0.51108
977.78218	0.51284
975.85361	0.51503
973.92505	0.51762
971.99648	0.52073
970.06792	0.52427
968.13936	0.52819
966.21079	0.53259
964.28223	0.53716
962.35366	0.54169
960.42510	0.54652
958.49653	0.55193
956.56797	0.55767
954.63940	0.56353
952.71084	0.56943
950.78228	0.57552
948.85371	0.58185
946.92515	0.58797
944.99658	0.59388
943.06802	0.60020
941.13945	0.60677
939.21089	0.61292
937.28232	0.61870
935.35376	0.62428
933.42520	0.62935
931.49663	0.63458
929.56807	0.64090
927.63950	0.64712
925.71094	0.65227
923.78237	0.65772
921.85381	0.66404
919.92524	0.67055
917.99668	0.67722
916.06812	0.68398
914.13955	0.69128
912.21099	0.69969
910.28242	0.70789
908.35386	0.71522
906.42529	0.72292
904.49673	0.73159
902.56816	0.74086
900.63960	0.75020
898.71104	0.75988
896.78247	0.77066
894.85391	0.78120
892.92534	0.79006
890.99678	0.79882
889.06821	0.80927
887.13965	0.82050
885.21108	0.83104
883.28252	0.84222
881.35396	0.85572
879.42539	0.86971
877.49683	0.88122
875.56826	0.89090
873.63970	0.90195
871.71113	0.91475
869.78257	0.92658
867.85400	0.93645
865.92544	0.94637
863.99687	0.95659
862.06831	0.96623
860.13975	0.97642
858.21118	0.98737
856.28262	0.99858
854.35405	1.01145
852.42549	1.02571
850.49692	1.03824
848.56836	1.04866
846.63979	1.05920
844.71123	1.07032
842.78267	1.08080
840.85410	1.08980
838.92554	1.09883
836.99697	1.10998
835.06841	1.12346
833.13984	1.13875
831.21128	1.15407
829.28271	1.16913
827.35415	1.18531
825.42559	1.19813
823.49702	1.20559
821.56846	1.21580
819.63989	1.22981
817.71133	1.24117
815.78276	1.25476
813.85420	1.27442
811.92563	1.29685
809.99707	1.32002
808.06851	1.33198
806.13994	1.33414
804.21138	1.34481
802.28281	1.36951
800.35425	1.40572
798.42568	1.41708
796.49712	1.38378
794.56855	1.37212
792.63999	1.40091
790.71143	1.46370
788.78286	1.61582
786.85430	1.79581
784.92573	1.76914
782.99717	1.70049
781.06860	1.62023
779.14004	1.53393
777.21147	1.55610
775.28291	1.79284
773.35435	2.29355
771.42578	1.82227
769.49722	1.55475
767.56865	1.47498
765.64009	1.37075
763.71152	1.27014
761.78296	1.27991
759.85439	1.36379
757.92583	1.42948
755.99727	1.31569
754.06870	1.18274
752.14014	1.17368
750.21157	1.18723
748.28301	1.10453
746.35444	1.02091
744.42588	0.97218
742.49731	0.93932
740.56875	0.90667
738.64019	0.85691
736.71162	0.84182
734.78306	0.84576
732.85449	0.75252
730.92593	0.65602
728.99736	0.61013
727.06880	0.52486
725.14023	0.44353
723.21167	0.46758
721.28311	0.45724
719.35454	0.29338
717.42598	0.18576
715.49741	0.21980
713.56885	0.32621
711.64028	0.39427
709.71172	0.36708
707.78315	0.23146
705.85459	0.11700
703.92603	0.15928
701.99746	0.34990
700.06890	0.37338
698.14033	0.24911
696.21177	0.17027
694.28320	0.13323
692.35464	0.19700
690.42607	0.38410
688.49751	0.43874
686.56895	0.26161
684.64038	0.11982
682.71182	0.05779
680.78325	0.00399
678.85469	-0.03360
676.92612	0.00867
674.99756	0.09293
673.06899	0.08625
671.14043	0.06615
669.21187	0.09489
667.28330	0.15144
665.35474	0.20434
663.42617	0.21651
661.49761	0.20487
659.56904	0.22617
657.64048	0.20083
655.71191	0.12710
653.78335	0.11284
651.85479	0.18987
649.92622	0.29855
647.99766	0.28666
646.06909	0.20783
644.14053	0.16841
642.21196	0.18495
640.28340	0.27771
638.35483	0.38440
636.42627	0.30707
634.49771	0.16362
632.56914	0.09428
630.64058	0.12542
628.71201	0.16797
626.78345	0.17451
624.85488	0.25549
622.92632	0.36674
620.99775	0.36809
619.06919	0.26852
617.14062	0.17152
615.21206	0.15876
613.28350	0.19946
611.35493	0.15895
609.42637	0.11267
607.49780	0.12989
605.56924	0.18223
603.64067	0.19034
601.71211	0.13440
599.78354	0.08986
597.85498	0.11265
595.92642	0.15725
593.99785	0.20837
592.06929	0.25218
590.14072	0.19425
588.21216	0.06051
586.28359	0.05827
584.35503	0.17201
582.42646	0.20945
580.49790	0.16588
578.56934	0.18173
576.64077	0.20987
574.71221	0.15587
572.78364	0.10202
570.85508	0.12767
568.92651	0.16512
566.99795	0.17100
565.06938	0.20175
563.14082	0.23680
561.21226	0.23008
559.28369	0.20910
557.35513	0.18402
555.42656	0.15007
553.49800	0.13078
551.56943	0.12173
549.64087	0.10366
547.71230	0.07824
545.78374	0.07121
543.85518	0.08477
541.92661	0.10776
539.99805	0.11063
538.06948	0.07419
536.14092	0.04658
534.21235	0.05447
532.28379	0.07624
530.35522	0.08530
528.42666	0.10081
526.49810	0.13539
524.56953	0.13748
522.64097	0.11369
520.71240	0.12062
518.78384	0.13462
516.85527	0.10757
514.92671	0.06682
512.99814	0.06640
511.06958	0.10897
509.14102	0.15299
507.21245	0.17813
505.28389	0.22332
503.35532	0.25611
501.42676	0.20347
499.49819	0.17582
