3997.91411	0.06661
3995.98555	0.06621
3994.05698	0.06603
3992.12842	0.06651
3990.19985	0.06740
3988.27129	0.06815
3986.34272	0.06852
3984.41416	0.06856
3982.48560	0.06841
3980.55703	0.06836
3978.62847	0.06860
3976.69990	0.06912
3974.77134	0.06991
3972.84277	0.07066
3970.91421	0.07077
3968.98564	0.07030
3967.05708	0.06998
3965.12852	0.07034
3963.19995	0.07093
3961.27139	0.07103
3959.34282	0.07096
3957.41426	0.07111
3955.48569	0.07099
3953.55713	0.07050
3951.62856	0.07020
3949.70000	0.07031
3947.77144	0.07048
3945.84287	0.07052
3943.91431	0.07069
3941.98574	0.07100
3940.05718	0.07105
3938.12861	0.07108
3936.20005	0.07124
3934.27148	0.07130
3932.34292	0.07140
3930.41436	0.07155
3928.48579	0.07165
3926.55723	0.07198
3924.62866	0.07239
3922.70010	0.07220
3920.77153	0.07137
3918.84297	0.07081
3916.91440	0.07112
3914.98584	0.07161
3913.05728	0.07143
3911.12871	0.07086
3909.20015	0.07033
3907.27158	0.07014
3905.34302	0.07040
3903.41445	0.07068
3901.48589	0.07080
3899.55732	0.07113
3897.62876	0.07130
3895.70020	0.07083
3893.77163	0.07034
3891.84307	0.07078
3889.91450	0.07159
3887.98594	0.07131
3886.05737	0.07089
3884.12881	0.07102
3882.20024	0.07102
3880.27168	0.07120
3878.34312	0.07127
3876.41455	0.07055
3874.48599	0.07025
3872.55742	0.07118
3870.62886	0.07274
3868.70029	0.07412
3866.77173	0.07434
3864.84316	0.07396
3862.91460	0.07372
3860.98604	0.07352
3859.05747	0.07353
3857.12891	0.07392
3855.20034	0.07463
3853.27178	0.07567
3851.34321	0.07638
3849.41465	0.07618
3847.48608	0.07618
3845.55752	0.07662
3843.62896	0.07719
3841.70039	0.07783
3839.77183	0.07884
3837.84326	0.08047
3835.91470	0.08178
3833.98613	0.08190
3832.05757	0.08145
3830.12900	0.08130
3828.20044	0.08197
3826.27187	0.08336
3824.34331	0.08455
3822.41475	0.08516
3820.48618	0.08598
3818.55762	0.08656
3816.62905	0.08690
3814.70049	0.08798
3812.77192	0.08902
3810.84336	0.08950
3808.91479	0.09009
3806.98623	0.09116
3805.05767	0.09256
3803.12910	0.09416
3801.20054	0.09636
3799.27197	0.09816
3797.34341	0.09859
3795.41484	0.09908
3793.48628	0.09997
3791.55771	0.10082
3789.62915	0.10155
3787.70059	0.10246
3785.77202	0.10404
3783.84346	0.10609
3781.91489	0.10768
3779.98633	0.10909
3778.05776	0.11107
3776.12920	0.11279
3774.20063	0.11379
3772.27207	0.11489
3770.34351	0.11694
3768.41494	0.11954
3766.48638	0.12145
3764.55781	0.12321
3762.62925	0.12515
3760.70068	0.12698
3758.77212	0.12910
3756.84355	0.13140
3754.91499	0.13334
3752.98643	0.13547
3751.05786	0.13893
3749.12930	0.14343
3747.20073	0.14597
3745.27217	0.14733
3743.34360	0.15058
3741.41504	0.15444
3739.48647	0.15680
3737.55791	0.15910
3735.62935	0.16261
3733.70078	0.16765
3731.77222	0.17238
3729.84365	0.17593
3727.91509	0.17948
3725.98652	0.18451
3724.05796	0.19120
3722.12939	0.19864
3720.20083	0.20681
3718.27227	0.21526
3716.34370	0.22348
3714.41514	0.23123
3712.48657	0.23980
3710.55801	0.25175
3708.62944	0.26505
3706.70088	0.27629
3704.77231	0.28721
3702.84375	0.30023
3700.91519	0.31748
3698.98662	0.33623
3697.05806	0.35341
3695.12949	0.37156
3693.20093	0.39118
3691.27236	0.41272
3689.34380	0.44122
3687.41523	0.47675
3685.48667	0.50759
3683.55811	0.53383
3681.62954	0.56172
3679.70098	0.59296
3677.77241	0.62582
3675.84385	0.66466
3673.91528	0.71751
3671.98672	0.76115
3670.05815	0.79930
3668.12959	0.85203
3666.20103	0.90094
3664.27246	0.94171
3662.34390	0.98524
3660.41533	1.03228
3658.48677	1.07831
3656.55820	1.12692
3654.62964	1.18194
3652.70107	1.22863
3650.77251	1.26797
3648.84395	1.32142
3646.91538	1.38987
3644.98682	1.44199
3643.05825	1.48160
3641.12969	1.52115
3639.20112	1.56463
3637.27256	1.60936
3635.34399	1.65316
3633.41543	1.69622
3631.48687	1.73595
3629.55830	1.77592
3627.62974	1.82919
3625.70117	1.87997
3623.77261	1.91446
3621.84404	1.94791
3619.91548	1.98682
3617.98691	2.03308
3616.05835	2.07645
3614.12979	2.11279
3612.20122	2.15214
3610.27266	2.19284
3608.34409	2.23367
3606.41553	2.27659
3604.48696	2.31613
3602.55840	2.35066
3600.62983	2.38790
3598.70127	2.42884
3596.77271	2.46806
3594.84414	2.50734
3592.91558	2.54858
3590.98701	2.58734
3589.05845	2.62318
3587.12988	2.66722
3585.20132	2.71735
3583.27275	2.76016
3581.34419	2.79920
3579.41562	2.84039
3577.48706	2.88413
3575.55850	2.92787
3573.62993	2.97028
3571.70137	3.01030
3569.77280	3.04989
3567.84424	3.09360
3565.91567	3.14678
3563.98711	3.19774
3562.05854	3.23828
3560.12998	3.27841
3558.20142	3.32190
3556.27285	3.36646
3554.34429	3.41034
3552.41572	3.45628
3550.48716	3.50436
3548.55859	3.54969
3546.63003	3.59272
3544.70146	3.64130
3542.77290	3.69259
3540.84434	3.73836
3538.91577	3.78239
3536.98721	3.83047
3535.05864	3.88333
3533.13008	3.93286
3531.20151	3.97752
3529.27295	4.02325
3527.34438	4.07111
3525.41582	4.11752
3523.48726	4.16314
3521.55869	4.21131
3519.63013	4.25916
3517.70156	4.30715
3515.77300	4.35737
3513.84443	4.40651
3511.91587	4.45007
3509.98730	4.49200
3508.05874	4.53930
3506.13018	4.59048
3504.20161	4.64110
3502.27305	4.68751
3500.34448	4.72995
3498.41592	4.77494
3496.48735	4.82407
3494.55879	4.87005
3492.63022	4.91471
3490.70166	4.96940
3488.77310	5.02649
3486.84453	5.07088
3484.91597	5.10913
3482.98740	5.14875
3481.05884	5.19016
3479.13027	5.23968
3477.20171	5.29731
3475.27314	5.35574
3473.34458	5.40896
3471.41602	5.45336
3469.48745	5.49474
3467.55889	5.53984
3465.63032	5.58926
3463.70176	5.64862
3461.77319	5.71014
3459.84463	5.75517
3457.91606	5.78703
3455.98750	5.82865
3454.05894	5.89139
3452.13037	5.95210
3450.20181	5.98573
3448.27324	6.01744
3446.34468	6.07692
3444.41611	6.14128
3442.48755	6.19200
3440.55898	6.23412
3438.63042	6.28066
3436.70186	6.33251
3434.77329	6.37084
3432.84473	6.40710
3430.91616	6.45832
3428.98760	6.50989
3427.05903	6.54905
3425.13047	6.59755
3423.20190	6.66094
3421.27334	6.71760
3419.34478	6.75581
3417.41621	6.79633
3415.48765	6.85591
3413.55908	6.90159
3411.63052	6.91713
3409.70195	6.93844
3407.77339	6.99756
3405.84482	7.05620
3403.91626	7.08053
3401.98770	7.09272
3400.05913	7.12109
3398.13057	7.16463
3396.20200	7.18973
3394.27344	7.21308
3392.34487	7.26643
3390.41631	7.33355
3388.48774	7.39642
3386.55918	7.45034
3384.63062	7.45658
3382.70205	7.45111
3380.77349	7.49642
3378.84492	7.54123
3376.91636	7.55066
3374.98779	7.55832
3373.05923	7.59046
3371.13066	7.62770
3369.20210	7.65458
3367.27354	7.66110
3365.34497	7.67486
3363.41641	7.72000
3361.48784	7.77023
3359.55928	7.83954
3357.63071	7.89756
3355.70215	7.85326
3353.77358	7.75195
3351.84502	7.76810
3349.91646	7.89250
3347.98789	7.93897
3346.05933	7.87389
3344.13076	7.81832
3342.20220	7.80954
3340.27363	7.80099
3338.34507	7.80613
3336.41650	7.84194
3334.48794	7.89950
3332.55937	7.93192
3330.63081	7.90389
3328.70225	7.90584
3326.77368	8.00032
3324.84512	8.06916
3322.91655	8.00964
3320.98799	7.93410
3319.05942	7.92154
3317.13086	7.95703
3315.20229	7.99705
3313.27373	8.02280
3311.34517	8.06068
3309.41660	8.11607
3307.48804	8.13437
3305.55947	8.06495
3303.63091	7.98895
3301.70234	7.98086
3299.77378	8.00946
3297.84521	8.04577
3295.91665	8.08184
3293.98809	8.07987
3292.05952	8.06980
3290.13096	8.04571
3288.20239	7.97259
3286.27383	7.96285
3284.34526	8.04597
3282.41670	8.07639
3280.48813	8.04413
3278.55957	8.07306
3276.63101	8.11300
3274.70244	8.09883
3272.77388	8.07269
3270.84531	8.06305
3268.91675	8.08653
3266.98818	8.09934
3265.05962	8.05715
3263.13105	8.00026
3261.20249	7.97664
3259.27393	7.94951
3257.34536	7.89642
3255.41680	7.87523
3253.48823	7.91721
3251.55967	8.00059
3249.63110	8.11529
3247.70254	8.20724
3245.77397	8.20513
3243.84541	8.16265
3241.91685	8.10309
3239.98828	8.01489
3238.05972	7.94265
3236.13115	7.93778
3234.20259	7.97902
3232.27402	7.98733
3230.34546	7.97484
3228.41689	8.03074
3226.48833	8.13149
3224.55977	8.15853
3222.63120	8.09028
3220.70264	7.91440
3218.77407	7.73741
3216.84551	7.70272
3214.91694	7.71962
3212.98838	7.70579
3211.05981	7.75835
3209.13125	7.83792
3207.20269	7.80222
3205.27412	7.70994
3203.34556	7.62714
3201.41699	7.55777
3199.48843	7.54517
3197.55986	7.56925
3195.63130	7.54923
3193.70273	7.49262
3191.77417	7.47906
3189.84561	7.48105
3187.91704	7.40815
3185.98848	7.29228
3184.05991	7.20289
3182.13135	7.14953
3180.20278	7.13154
3178.27422	7.14107
3176.34565	7.12614
3174.41709	7.05451
3172.48853	6.97635
3170.55996	6.92836
3168.63140	6.89916
3166.70283	6.84257
3164.77427	6.73162
3162.84570	6.61367
3160.91714	6.53513
3158.98857	6.49868
3157.06001	6.46950
3155.13145	6.42838
3153.20288	6.37904
3151.27432	6.30864
3149.34575	6.22136
3147.41719	6.13750
3145.48862	6.06446
3143.56006	5.99912
3141.63149	5.94013
3139.70293	5.87685
3137.77437	5.80125
3135.84580	5.72579
3133.91724	5.65725
3131.98867	5.59471
3130.06011	5.54137
3128.13154	5.48694
3126.20298	5.41409
3124.27441	5.33171
3122.34585	5.25392
3120.41729	5.18072
3118.48872	5.11323
3116.56016	5.04819
3114.63159	4.97806
3112.70303	4.90626
3110.77446	4.84104
3108.84590	4.77865
3106.91733	4.71275
3104.98877	4.64823
3103.06021	4.58670
3101.13164	4.51959
3099.20308	4.44855
3097.27451	4.38109
3095.34595	4.31682
3093.41738	4.25537
3091.48882	4.19523
3089.56025	4.13484
3087.63169	4.07459
3085.70312	4.01430
3083.77456	3.95463
3081.84600	3.89429
3079.91743	3.83323
3077.98887	3.77400
3076.06030	3.71647
3074.13174	3.65945
3072.20317	3.60345
3070.27461	3.54851
3068.34604	3.49329
3066.41748	3.43781
3064.48892	3.38312
3062.56035	3.32925
3060.63179	3.27645
3058.70322	3.22530
3056.77466	3.17476
3054.84609	3.12371
3052.91753	3.07289
3050.98896	3.02206
3049.06040	2.97046
3047.13184	2.91988
3045.20327	2.87133
3043.27471	2.82359
3041.34614	2.77633
3039.41758	2.73010
3037.48901	2.68509
3035.56045	2.64089
3033.63188	2.59698
3031.70332	2.55317
3029.77476	2.50947
3027.84619	2.46605
3025.91763	2.42359
3023.98906	2.38277
3022.06050	2.34250
3020.13193	2.30194
3018.20337	2.26216
3016.27480	2.22269
3014.34624	2.18277
3012.41768	2.14392
3010.48911	2.10700
3008.56055	2.07096
3006.63198	2.03495
3004.70342	1.99954
3002.77485	1.96531
3000.84629	1.93176
2998.91772	1.89857
2996.98916	1.86635
2995.06060	1.83517
2993.13203	1.80453
2991.20347	1.77492
2989.27490	1.74662
2987.34634	1.71893
2985.41777	1.69163
2983.48921	1.66492
2981.56064	1.63855
2979.63208	1.61251
2977.70352	1.58709
2975.77495	1.56238
2973.84639	1.53825
2971.91782	1.51455
2969.98926	1.49171
2968.06069	1.46977
2966.13213	1.44749
2964.20356	1.42440
2962.27500	1.40122
2960.34644	1.37821
2958.41787	1.35530
2956.48931	1.33245
2954.56074	1.30963
2952.63218	1.28693
2950.70361	1.26448
2948.77505	1.24215
2946.84648	1.22019
2944.91792	1.19911
2942.98936	1.17873
2941.06079	1.15890
2939.13223	1.13988
2937.20366	1.12143
2935.27510	1.10313
2933.34653	1.08451
2931.41797	1.06496
2929.48940	1.04479
2927.56084	1.02516
2925.63228	1.00658
2923.70371	0.98860
2921.77515	0.97105
2919.84658	0.95425
2917.91802	0.93758
2915.98945	0.92031
2914.06089	0.90336
2912.13232	0.88711
2910.20376	0.87087
2908.27520	0.85481
2906.34663	0.83966
2904.41807	0.82519
2902.48950	0.81104
2900.56094	0.79752
2898.63237	0.78418
2896.70381	0.77072
2894.77524	0.75786
2892.84668	0.74571
2890.91812	0.73373
2888.98955	0.72204
2887.06099	0.71117
2885.13242	0.70103
2883.20386	0.69127
2881.27529	0.68178
2879.34673	0.67238
2877.41816	0.66294
2875.48960	0.65349
2873.56104	0.64373
2871.63247	0.63336
2869.70391	0.62241
2867.77534	0.61104
2865.84678	0.59950
2863.91821	0.58781
2861.98965	0.57588
2860.06108	0.56430
2858.13252	0.55361
2856.20396	0.54367
2854.27539	0.53430
2852.34683	0.52533
2850.41826	0.51651
2848.48970	0.50791
2846.56113	0.49959
2844.63257	0.49153
2842.70400	0.48401
2840.77544	0.47711
2838.84687	0.47064
2836.91831	0.46441
2834.98975	0.45822
2833.06118	0.45211
2831.13262	0.44610
2829.20405	0.44002
2827.27549	0.43377
2825.34692	0.42743
2823.41836	0.42128
2821.48979	0.41543
2819.56123	0.40973
2817.63267	0.40393
2815.70410	0.39808
2813.77554	0.39231
2811.84697	0.38671
2809.91841	0.38143
2807.98984	0.37625
2806.06128	0.37086
2804.13271	0.36551
2802.20415	0.36034
2800.27559	0.35515
2798.34702	0.35005
2796.41846	0.34528
2794.48989	0.34078
2792.56133	0.33620
2790.63276	0.33142
2788.70420	0.32680
2786.77563	0.32242
2784.84707	0.31799
2782.91851	0.31360
2780.98994	0.30937
2779.06138	0.30522
2777.13281	0.30117
2775.20425	0.29729
2773.27568	0.29353
2771.34712	0.28992
2769.41855	0.28643
2767.48999	0.28290
2765.56143	0.27921
2763.63286	0.27551
2761.70430	0.27207
2759.77573	0.26879
2757.84717	0.26550
2755.91860	0.26235
2753.99004	0.25923
2752.06147	0.25598
2750.13291	0.25282
2748.20435	0.24982
2746.27578	0.24696
2744.34722	0.24434
2742.41865	0.24175
2740.49009	0.23904
2738.56152	0.23639
2736.63296	0.23384
2734.70439	0.23124
2732.77583	0.22864
2730.84727	0.22623
2728.91870	0.22409
2726.99014	0.22203
2725.06157	0.21978
2723.13301	0.21738
2721.20444	0.21499
2719.27588	0.21274
2717.34731	0.21074
2715.41875	0.20878
2713.49019	0.20682
2711.56162	0.20499
2709.63306	0.20319
2707.70449	0.20144
2705.77593	0.19984
2703.84736	0.19840
2701.91880	0.19695
2699.99023	0.19545
2698.06167	0.19392
2696.13311	0.19229
2694.20454	0.19060
2692.27598	0.18907
2690.34741	0.18766
2688.41885	0.18624
2686.49028	0.18487
2684.56172	0.18359
2682.63315	0.18233
2680.70459	0.18121
2678.77603	0.18025
2676.84746	0.17912
2674.91890	0.17777
2672.99033	0.17650
2671.06177	0.17541
2669.13320	0.17438
2667.20464	0.17332
2665.27607	0.17228
2663.34751	0.17140
2661.41895	0.17051
2659.49038	0.16946
2657.56182	0.16852
2655.63325	0.16775
2653.70469	0.16699
2651.77612	0.16633
2649.84756	0.16569
2647.91899	0.16483
2645.99043	0.16397
2644.06187	0.16328
2642.13330	0.16258
2640.20474	0.16195
2638.27617	0.16151
2636.34761	0.16115
2634.41904	0.16068
2632.49048	0.16006
2630.56191	0.15949
2628.63335	0.15911
2626.70479	0.15870
2624.77622	0.15817
2622.84766	0.15778
2620.91909	0.15757
2618.99053	0.15735
2617.06196	0.15701
2615.13340	0.15666
2613.20483	0.15637
2611.27627	0.15611
2609.34771	0.15587
2607.41914	0.15562
2605.49058	0.15537
2603.56201	0.15526
2601.63345	0.15522
2599.70488	0.15515
2597.77632	0.15508
2595.84775	0.15502
2593.91919	0.15496
2591.99062	0.15493
2590.06206	0.15488
2588.13350	0.15499
2586.20493	0.15530
2584.27637	0.15562
2582.34780	0.15582
2580.41924	0.15595
2578.49067	0.15612
2576.56211	0.15629
2574.63354	0.15638
2572.70498	0.15653
2570.77642	0.15685
2568.84785	0.15725
2566.91929	0.15755
2564.99072	0.15781
2563.06216	0.15803
2561.13359	0.15821
2559.20503	0.15858
2557.27646	0.15909
2555.34790	0.15954
2553.41934	0.16005
2551.49077	0.16057
2549.56221	0.16091
2547.63364	0.16123
2545.70508	0.16169
2543.77651	0.16222
2541.84795	0.16283
2539.91938	0.16355
2537.99082	0.16425
2536.06226	0.16478
2534.13369	0.16526
2532.20513	0.16584
2530.27656	0.16642
2528.34800	0.16694
2526.41943	0.16749
2524.49087	0.16811
2522.56230	0.16878
2520.63374	0.16949
2518.70518	0.17026
2516.77661	0.17101
2514.84805	0.17169
2512.91948	0.17247
2510.99092	0.17334
2509.06235	0.17412
2507.13379	0.17473
2505.20522	0.17526
2503.27666	0.17590
2501.34810	0.17667
2499.41953	0.17747
2497.49097	0.17828
2495.56240	0.17909
2493.63384	0.17997
2491.70527	0.18083
2489.77671	0.18151
2487.84814	0.18214
2485.91958	0.18287
2483.99102	0.18362
2482.06245	0.18435
2480.13389	0.18519
2478.20532	0.18607
2476.27676	0.18682
2474.34819	0.18756
2472.41963	0.18843
2470.49106	0.18935
2468.56250	0.19016
2466.63394	0.19093
2464.70537	0.19185
2462.77681	0.19280
2460.84824	0.19369
2458.91968	0.19460
2456.99111	0.19551
2455.06255	0.19631
2453.13398	0.19705
2451.20542	0.19799
2449.27686	0.19908
2447.34829	0.20003
2445.41973	0.20074
2443.49116	0.20150
2441.56260	0.20249
2439.63403	0.20350
2437.70547	0.20441
2435.77690	0.20534
2433.84834	0.20632
2431.91978	0.20734
2429.99121	0.20837
2428.06265	0.20942
2426.13408	0.21045
2424.20552	0.21142
2422.27695	0.21242
2420.34839	0.21350
2418.41982	0.21459
2416.49126	0.21565
2414.56270	0.21675
2412.63413	0.21784
2410.70557	0.21881
2408.77700	0.21972
2406.84844	0.22085
2404.91987	0.22224
2402.99131	0.22357
2401.06274	0.22476
2399.13418	0.22589
2397.20562	0.22695
2395.27705	0.22794
2393.34849	0.22898
2391.41992	0.23017
2389.49136	0.23128
2387.56279	0.23212
2385.63423	0.23244
2383.70566	0.23195
2381.77710	0.23082
2379.84854	0.22935
2377.91997	0.22753
2375.99141	0.22512
2374.06284	0.22213
2372.13428	0.21846
2370.20571	0.21385
2368.27715	0.20834
2366.34858	0.20243
2364.42002	0.19664
2362.49146	0.19231
2360.56289	0.19095
2358.63433	0.19297
2356.70576	0.19983
2354.77720	0.20958
2352.84863	0.21930
2350.92007	0.22832
2348.99150	0.23403
2347.06294	0.23507
2345.13437	0.23195
2343.20581	0.22754
2341.27725	0.22663
2339.34868	0.22896
2337.42012	0.23126
2335.49155	0.23316
2333.56299	0.23594
2331.63442	0.23951
2329.70586	0.24266
2327.77729	0.24528
2325.84873	0.24881
2323.92017	0.25356
2321.99160	0.25823
2320.06304	0.26219
2318.13447	0.26589
2316.20591	0.26942
2314.27734	0.27277
2312.34878	0.27597
2310.42021	0.27891
2308.49165	0.28172
2306.56309	0.28490
2304.63452	0.28835
2302.70596	0.29137
2300.77739	0.29397
2298.84883	0.29653
2296.92026	0.29908
2294.99170	0.30160
2293.06313	0.30414
2291.13457	0.30670
2289.20601	0.30932
2287.27744	0.31195
2285.34888	0.31443
2283.42031	0.31659
2281.49175	0.31852
2279.56318	0.32042
2277.63462	0.32231
2275.70605	0.32420
2273.77749	0.32617
2271.84893	0.32824
2269.92036	0.33029
2267.99180	0.33238
2266.06323	0.33457
2264.13467	0.33669
2262.20610	0.33867
2260.27754	0.34071
2258.34897	0.34296
2256.42041	0.34534
2254.49185	0.34770
2252.56328	0.35001
2250.63472	0.35228
2248.70615	0.35435
2246.77759	0.35642
2244.84902	0.35876
2242.92046	0.36109
2240.99189	0.36313
2239.06333	0.36512
2237.13477	0.36728
2235.20620	0.36962
2233.27764	0.37198
2231.34907	0.37424
2229.42051	0.37644
2227.49194	0.37860
2225.56338	0.38074
2223.63481	0.38285
2221.70625	0.38492
2219.77769	0.38698
2217.84912	0.38912
2215.92056	0.39135
2213.99199	0.39356
2212.06343	0.39567
2210.13486	0.39773
2208.20630	0.39983
2206.27773	0.40189
2204.34917	0.40380
2202.42061	0.40577
2200.49204	0.40795
2198.56348	0.41010
2196.63491	0.41197
2194.70635	0.41364
2192.77778	0.41546
2190.84922	0.41740
2188.92065	0.41920
2186.99209	0.42090
2185.06353	0.42271
2183.13496	0.42451
2181.20640	0.42618
2179.27783	0.42780
2177.34927	0.42936
2175.42070	0.43084
2173.49214	0.43227
2171.56357	0.43365
2169.63501	0.43499
2167.70645	0.43640
2165.77788	0.43777
2163.84932	0.43899
2161.92075	0.44008
2159.99219	0.44107
2158.06362	0.44201
2156.13506	0.44294
2154.20649	0.44385
2152.27793	0.44469
2150.34937	0.44549
2148.42080	0.44620
2146.49224	0.44676
2144.56367	0.44728
2142.63511	0.44783
2140.70654	0.44824
2138.77798	0.44836
2136.84941	0.44837
2134.92085	0.44846
2132.99229	0.44854
2131.06372	0.44856
2129.13516	0.44856
2127.20659	0.44846
2125.27803	0.44820
2123.34946	0.44781
2121.42090	0.44742
2119.49233	0.44697
2117.56377	0.44635
2115.63521	0.44566
2113.70664	0.44496
2111.77808	0.44417
2109.84951	0.44323
2107.92095	0.44216
2105.99238	0.44115
2104.06382	0.44023
2102.13525	0.43908
2100.20669	0.43766
2098.27812	0.43632
2096.34956	0.43502
2094.42100	0.43359
2092.49243	0.43213
2090.56387	0.43064
2088.63530	0.42896
2086.70674	0.42712
2084.77817	0.42523
2082.84961	0.42336
2080.92104	0.42147
2078.99248	0.41956
2077.06392	0.41763
2075.13535	0.41556
2073.20679	0.41332
2071.27822	0.41113
2069.34966	0.40912
2067.42109	0.40713
2065.49253	0.40494
2063.56396	0.40247
2061.63540	0.39988
2059.70684	0.39738
2057.77827	0.39503
2055.84971	0.39277
2053.92114	0.39043
2051.99258	0.38787
2050.06401	0.38522
2048.13545	0.38268
2046.20688	0.38010
2044.27832	0.37747
2042.34976	0.37486
2040.42119	0.37222
2038.49263	0.36961
2036.56406	0.36705
2034.63550	0.36442
2032.70693	0.36171
2030.77837	0.35908
2028.84980	0.35640
2026.92124	0.35360
2024.99268	0.35079
2023.06411	0.34810
2021.13555	0.34551
2019.20698	0.34295
2017.27842	0.34029
2015.34985	0.33746
2013.42129	0.33468
2011.49272	0.33200
2009.56416	0.32938
2007.63560	0.32681
2005.70703	0.32422
2003.77847	0.32154
2001.84990	0.31883
1999.92134	0.31620
1997.99277	0.31363
1996.06421	0.31115
1994.13564	0.30881
1992.20708	0.30641
1990.27852	0.30379
1988.34995	0.30121
1986.42139	0.29887
1984.49282	0.29663
1982.56426	0.29433
1980.63569	0.29198
1978.70713	0.28973
1976.77856	0.28748
1974.85000	0.28520
1972.92144	0.28305
1970.99287	0.28107
1969.06431	0.27910
1967.13574	0.27712
1965.20718	0.27513
1963.27861	0.27320
1961.35005	0.27129
1959.42148	0.26938
1957.49292	0.26753
1955.56436	0.26575
1953.63579	0.26409
1951.70723	0.26250
1949.77866	0.26092
1947.85010	0.25929
1945.92153	0.25771
1943.99297	0.25623
1942.06440	0.25481
1940.13584	0.25328
1938.20728	0.25171
1936.27871	0.25033
1934.35015	0.24908
1932.42158	0.24785
1930.49302	0.24667
1928.56445	0.24557
1926.63589	0.24450
1924.70732	0.24360
1922.77876	0.24285
1920.85020	0.24193
1918.92163	0.24092
1916.99307	0.23994
1915.06450	0.23892
1913.13594	0.23798
1911.20737	0.23726
1909.27881	0.23663
1907.35024	0.23593
1905.42168	0.23518
1903.49312	0.23455
1901.56455	0.23403
1899.63599	0.23353
1897.70742	0.23309
1895.77886	0.23277
1893.85029	0.23252
1891.92173	0.23224
1889.99316	0.23209
1888.06460	0.23188
1886.13604	0.23147
1884.20747	0.23116
1882.27891	0.23098
1880.35034	0.23078
1878.42178	0.23060
1876.49321	0.23054
1874.56465	0.23051
1872.63608	0.23053
1870.70752	0.23070
1868.77896	0.23128
1866.85039	0.23172
1864.92183	0.23158
1862.99326	0.23148
1861.06470	0.23169
1859.13613	0.23207
1857.20757	0.23243
1855.27900	0.23284
1853.35044	0.23324
1851.42187	0.23366
1849.49331	0.23413
1847.56475	0.23475
1845.63618	0.23559
1843.70762	0.23670
1841.77905	0.23757
1839.85049	0.23802
1837.92192	0.23874
1835.99336	0.23964
1834.06479	0.24054
1832.13623	0.24152
1830.20767	0.24288
1828.27910	0.24426
1826.35054	0.24528
1824.42197	0.24647
1822.49341	0.24777
1820.56484	0.24913
1818.63628	0.25056
1816.70771	0.25213
1814.77915	0.25368
1812.85059	0.25532
1810.92202	0.25722
1808.99346	0.25924
1807.06489	0.26118
1805.13633	0.26306
1803.20776	0.26523
1801.27920	0.26769
1799.35063	0.27034
1797.42207	0.27275
1795.49351	0.27514
1793.56494	0.27803
1791.63638	0.28177
1789.70781	0.28518
1787.77925	0.28757
1785.85068	0.29045
1783.92212	0.29400
1781.99355	0.29788
1780.06499	0.30198
1778.13643	0.30616
1776.20786	0.31005
1774.27930	0.31415
1772.35073	0.31980
1770.42217	0.32616
1768.49360	0.33151
1766.56504	0.33647
1764.63647	0.34151
1762.70791	0.34722
1760.77935	0.35460
1758.85078	0.36150
1756.92222	0.36850
1754.99365	0.37621
1753.06509	0.38303
1751.13652	0.39094
1749.20796	0.40113
1747.27939	0.41159
1745.35083	0.42086
1743.42227	0.43041
1741.49370	0.44063
1739.56514	0.45258
1737.63657	0.46466
1735.70801	0.47522
1733.77944	0.49122
1731.85088	0.51091
1729.92231	0.52668
1727.99375	0.54220
1726.06519	0.55857
1724.13662	0.57649
1722.20806	0.59584
1720.27949	0.61348
1718.35093	0.63410
1716.42236	0.66533
1714.49380	0.69587
1712.56523	0.72082
1710.63667	0.74470
1708.70811	0.77021
1706.77954	0.79934
1704.85098	0.83446
1702.92241	0.86578
1700.99385	0.89662
1699.06528	0.94307
1697.13672	0.98678
1695.20815	1.03250
1693.27959	1.07708
1691.35103	1.11322
1689.42246	1.15525
1687.49390	1.19998
1685.56533	1.24331
1683.63677	1.31053
1681.70820	1.38054
1679.77964	1.42520
1677.85107	1.46786
1675.92251	1.51732
1673.99395	1.57868
1672.06538	1.63366
1670.13682	1.68837
1668.20825	1.76014
1666.27969	1.81966
1664.35112	1.87164
1662.42256	1.93763
1660.49399	2.01200
1658.56543	2.07034
1656.63687	2.11738
1654.70830	2.15947
1652.77974	2.22107
1650.85117	2.27708
1648.92261	2.29679
1646.99404	2.32127
1645.06548	2.34484
1643.13691	2.35821
1641.20835	2.36456
1639.27979	2.36996
1637.35122	2.37113
1635.42266	2.36765
1633.49409	2.36051
1631.56553	2.34594
1629.63696	2.32514
1627.70840	2.29187
1625.77983	2.25468
1623.85127	2.20816
1621.92271	2.15152
1619.99414	2.10290
1618.06558	2.05567
1616.13701	1.98748
1614.20845	1.91932
1612.27988	1.86809
1610.35132	1.81432
1608.42275	1.75591
1606.49419	1.69878
1604.56562	1.64684
1602.63706	1.59723
1600.70850	1.54895
1598.77993	1.50444
1596.85137	1.46280
1594.92280	1.42299
1592.99424	1.38509
1591.06567	1.35045
1589.13711	1.31811
1587.20854	1.28863
1585.27998	1.26219
1583.35142	1.23776
1581.42285	1.21560
1579.49429	1.19727
1577.56572	1.18166
1575.63716	1.16369
1573.70859	1.14858
1571.78003	1.13929
1569.85146	1.13020
1567.92290	1.12055
1565.99434	1.11441
1564.06577	1.11141
1562.13721	1.10999
1560.20864	1.11095
1558.28008	1.11888
1556.35151	1.12810
1554.42295	1.13341
1552.49438	1.13850
1550.56582	1.14167
1548.63726	1.14147
1546.70869	1.13735
1544.78013	1.12895
1542.85156	1.11632
1540.92300	1.09618
1538.99443	1.06360
1537.06587	1.03958
1535.13730	1.02300
1533.20874	1.00045
1531.28018	0.97617
1529.35161	0.95869
1527.42305	0.94217
1525.49448	0.92480
1523.56592	0.91016
1521.63735	0.89675
1519.70879	0.88348
1517.78022	0.87224
1515.85166	0.85902
1513.92310	0.84485
1511.99453	0.83229
1510.06597	0.82081
1508.13740	0.80944
1506.20884	0.79205
1504.28027	0.77749
1502.35171	0.76948
1500.42314	0.76238
1498.49458	0.75469
1496.56602	0.74558
1494.63745	0.73672
1492.70889	0.73021
1490.78032	0.72448
1488.85176	0.71757
1486.92319	0.71123
1484.99463	0.70668
1483.06606	0.70332
1481.13750	0.70061
1479.20894	0.69866
1477.28037	0.69788
1475.35181	0.69814
1473.42324	0.69905
1471.49468	0.69964
1469.56611	0.69894
1467.63755	0.69737
1465.70898	0.69583
1463.78042	0.69498
1461.85186	0.69490
1459.92329	0.69524
1457.99473	0.69596
1456.06616	0.69624
1454.13760	0.69476
1452.20903	0.69258
1450.28047	0.69014
1448.35190	0.68758
1446.42334	0.68481
1444.49478	0.68190
1442.56621	0.67897
1440.63765	0.67610
1438.70908	0.67323
1436.78052	0.66935
1434.85195	0.66464
1432.92339	0.66119
1430.99482	0.65924
1429.06626	0.65836
1427.13770	0.65823
1425.20913	0.65891
1423.28057	0.66044
1421.35200	0.66191
1419.42344	0.66290
1417.49487	0.66317
1415.56631	0.66237
1413.63774	0.66169
1411.70918	0.66198
1409.78062	0.66329
1407.85205	0.66510
1405.92349	0.66720
1403.99492	0.66935
1402.06636	0.67047
1400.13779	0.67026
1398.20923	0.66886
1396.28066	0.66613
1394.35210	0.66195
1392.42354	0.65702
1390.49497	0.65230
1388.56641	0.64751
1386.63784	0.64197
1384.70928	0.63606
1382.78071	0.63042
1380.85215	0.62522
1378.92358	0.62085
1376.99502	0.61761
1375.06646	0.61548
1373.13789	0.61401
1371.20933	0.61299
1369.28076	0.61231
1367.35220	0.61136
1365.42363	0.60994
1363.49507	0.60833
1361.56650	0.60656
1359.63794	0.60476
1357.70937	0.60328
1355.78081	0.60209
1353.85225	0.60103
1351.92368	0.60003
1349.99512	0.59910
1348.06655	0.59815
1346.13799	0.59713
1344.20942	0.59617
1342.28086	0.59548
1340.35229	0.59503
1338.42373	0.59448
1336.49517	0.59379
1334.56660	0.59337
1332.63804	0.59341
1330.70947	0.59380
1328.78091	0.59442
1326.85234	0.59532
1324.92378	0.59640
1322.99521	0.59750
1321.06665	0.59872
1319.13809	0.59996
1317.20952	0.60068
1315.28096	0.60081
1313.35239	0.60066
1311.42383	0.60022
1309.49526	0.59943
1307.56670	0.59855
1305.63813	0.59784
1303.70957	0.59733
1301.78101	0.59682
1299.85244	0.59607
1297.92388	0.59510
1295.99531	0.59400
1294.06675	0.59273
1292.13818	0.59127
1290.20962	0.58973
1288.28105	0.58827
1286.35249	0.58689
1284.42393	0.58552
1282.49536	0.58406
1280.56680	0.58254
1278.63823	0.58103
1276.70967	0.57951
1274.78110	0.57806
1272.85254	0.57693
1270.92397	0.57617
1268.99541	0.57561
1267.06685	0.57490
1265.13828	0.57382
1263.20972	0.57261
1261.28115	0.57154
1259.35259	0.57065
1257.42402	0.56996
1255.49546	0.56955
1253.56689	0.56945
1251.63833	0.56953
1249.70977	0.56966
1247.78120	0.56971
1245.85264	0.56949
1243.92407	0.56878
1241.99551	0.56768
1240.06694	0.56616
1238.13838	0.56410
1236.20981	0.56161
1234.28125	0.55900
1232.35269	0.55654
1230.42412	0.55428
1228.49556	0.55192
1226.56699	0.54936
1224.63843	0.54701
1222.70986	0.54501
1220.78130	0.54313
1218.85273	0.54132
1216.92417	0.53973
1214.99561	0.53848
1213.06704	0.53753
1211.13848	0.53672
1209.20991	0.53602
1207.28135	0.53536
1205.35278	0.53457
1203.42422	0.53366
1201.49565	0.53265
1199.56709	0.53150
1197.63853	0.53041
1195.70996	0.52955
1193.78140	0.52892
1191.85283	0.52844
1189.92427	0.52802
1187.99570	0.52757
1186.06714	0.52712
1184.13857	0.52702
1182.21001	0.52767
1180.28145	0.52894
1178.35288	0.53048
1176.42432	0.53200
1174.49575	0.53339
1172.56719	0.53450
1170.63862	0.53513
1168.71006	0.53523
1166.78149	0.53514
1164.85293	0.53523
1162.92437	0.53551
1160.99580	0.53563
1159.06724	0.53559
1157.13867	0.53551
1155.21011	0.53500
1153.28154	0.53376
1151.35298	0.53190
1149.42441	0.52955
1147.49585	0.52688
1145.56729	0.52411
1143.63872	0.52146
1141.71016	0.51918
1139.78159	0.51748
1137.85303	0.51644
1135.92446	0.51593
1133.99590	0.51579
1132.06733	0.51590
1130.13877	0.51623
1128.21021	0.51650
1126.28164	0.51647
1124.35308	0.51630
1122.42451	0.51618
1120.49595	0.51635
1118.56738	0.51690
1116.63882	0.51767
1114.71025	0.51845
1112.78169	0.51912
1110.85312	0.51978
1108.92456	0.52066
1106.99600	0.52170
1105.06743	0.52263
1103.13887	0.52345
1101.21030	0.52436
1099.28174	0.52546
1097.35317	0.52701
1095.42461	0.52941
1093.49604	0.53291
1091.56748	0.53771
1089.63892	0.54406
1087.71035	0.55201
1085.78179	0.56099
1083.85322	0.56987
1081.92466	0.57753
1079.99609	0.58305
1078.06753	0.58557
1076.13896	0.58461
1074.21040	0.58040
1072.28184	0.57405
1070.35327	0.56702
1068.42471	0.55996
1066.49614	0.55310
1064.56758	0.54691
1062.63901	0.54147
1060.71045	0.53671
1058.78188	0.53263
1056.85332	0.52894
1054.92476	0.52538
1052.99619	0.52212
1051.06763	0.51949
1049.13906	0.51776
1047.21050	0.51687
1045.28193	0.51655
1043.35337	0.51658
1041.42480	0.51676
1039.49624	0.51667
1037.56768	0.51612
1035.63911	0.51565
1033.71055	0.51533
1031.78198	0.51445
1029.85342	0.51282
1027.92485	0.51084
1025.99629	0.50865
1024.06772	0.50648
1022.13916	0.50499
1020.21060	0.50443
1018.28203	0.50421
1016.35347	0.50374
1014.42490	0.50316
1012.49634	0.50276
1010.56777	0.50231
1008.63921	0.50178
1006.71064	0.50159
1004.78208	0.50212
1002.85352	0.50363
1000.92495	0.50615
998.99639	0.50964
997.06782	0.51396
995.13926	0.51869
993.21069	0.52308
991.28213	0.52638
989.35356	0.52819
987.42500	0.52855
985.49644	0.52803
983.56787	0.52752
981.63931	0.52743
979.71074	0.52778
977.78218	0.52871
975.85361	0.53024
973.92505	0.53224
971.99648	0.53474
970.06792	0.53784
968.13936	0.54133
966.21079	0.54502
964.28223	0.54899
962.35366	0.55341
960.42510	0.55828
958.49653	0.56340
956.56797	0.56870
954.63940	0.57442
952.71084	0.58054
950.78228	0.58689
948.85371	0.59328
946.92515	0.59934
944.99658	0.60515
943.06802	0.61115
941.13945	0.61732
939.21089	0.62356
937.28232	0.62981
935.35376	0.63607
933.42520	0.64232
931.49663	0.64761
929.56807	0.65182
927.63950	0.65675
925.71094	0.66290
923.78237	0.66910
921.85381	0.67517
919.92524	0.68163
917.99668	0.68840
916.06812	0.69501
914.13955	0.70161
912.21099	0.70899
910.28242	0.71729
908.35386	0.72567
906.42529	0.73410
904.49673	0.74288
902.56816	0.75123
900.63960	0.76015
898.71104	0.77099
896.78247	0.78152
894.85391	0.79048
892.92534	0.79959
890.99678	0.80958
889.06821	0.82034
887.13965	0.83203
885.21108	0.84395
883.28252	0.85552
881.35396	0.86646
879.42539	0.87643
877.49683	0.88649
875.56826	0.89764
873.63970	0.90868
871.71113	0.91910
869.78257	0.93083
867.85400	0.94332
865.92544	0.95426
863.99687	0.96541
862.06831	0.97818
860.13975	0.98994
858.21118	1.00039
856.28262	1.01248
854.35405	1.02585
852.42549	1.03779
850.49692	1.04864
848.56836	1.05932
846.63979	1.06981
844.71123	1.08018
842.78267	1.09001
840.85410	1.10010
838.92554	1.11082
836.99697	1.12094
835.06841	1.13160
833.13984	1.14708
831.21128	1.16429
829.28271	1.17444
827.35415	1.18099
825.42559	1.18753
823.49702	1.18791
821.56846	1.18843
819.63989	1.20259
817.71133	1.22508
815.78276	1.24241
813.85420	1.24979
811.92563	1.25042
809.99707	1.24999
808.06851	1.24689
806.13994	1.24737
804.21138	1.26270
802.28281	1.29226
800.35425	1.31703
798.42568	1.31245
796.49712	1.29439
794.56855	1.29780
792.63999	1.32375
790.71143	1.35926
788.78286	1.42387
786.85430	1.49253
784.92573	1.46433
782.99717	1.37460
781.06860	1.30325
779.14004	1.25434
777.21147	1.23480
775.28291	1.28310
773.35435	1.40113
771.42578	1.44754
769.49722	1.36057
767.56865	1.31810
765.64009	1.35160
763.71152	1.39504
761.78296	1.42544
759.85439	1.43411
757.92583	1.37442
755.99727	1.27260
754.06870	1.17111
752.14014	1.10860
750.21157	1.11771
748.28301	1.12913
746.35444	1.05672
744.42588	0.99802
742.49731	1.02410
740.56875	1.03484
738.64019	0.90256
736.71162	0.77653
734.78306	0.70572
732.85449	0.64160
730.92593	0.59264
728.99736	0.54066
727.06880	0.48733
725.14023	0.50369
723.21167	0.68807
721.28311	0.58535
719.35454	0.17820
717.42598	-0.03885
715.49741	-0.09637
713.56885	0.09234
711.64028	0.20915
709.71172	0.15355
707.78315	0.13110
705.85459	0.14252
703.92603	0.18524
701.99746	0.22078
700.06890	0.17750
698.14033	0.18313
696.21177	0.28522
694.28320	0.35276
692.35464	0.31772
690.42607	0.26993
688.49751	0.23501
686.56895	0.23295
684.64038	0.27870
682.71182	0.31566
680.78325	0.35904
678.85469	0.49021
676.92612	0.55219
674.99756	0.40326
673.06899	0.31246
671.14043	0.30717
669.21187	0.32885
667.28330	0.34941
665.35474	0.39571
663.42617	0.39946
661.49761	0.33822
659.56904	0.36527
657.64048	0.40234
655.71191	0.24817
653.78335	0.10007
651.85479	0.09341
649.92622	0.15508
647.99766	0.24940
646.06909	0.37217
644.14053	0.36054
642.21196	0.28063
640.28340	0.16380
638.35483	0.04531
636.42627	0.03957
634.49771	0.12375
632.56914	0.17614
630.64058	0.17156
628.71201	0.15459
626.78345	0.13491
624.85488	0.10815
622.92632	0.11299
620.99775	0.17999
619.06919	0.22597
617.14062	0.16966
615.21206	0.08047
613.28350	0.03151
611.35493	0.05545
609.42637	0.18178
607.49780	0.43593
605.56924	0.59291
603.64067	0.37589
601.71211	0.24058
599.78354	0.22088
597.85498	0.22328
595.92642	0.21621
593.99785	0.20570
592.06929	0.17563
590.14072	0.16860
588.21216	0.20909
586.28359	0.24632
584.35503	0.24453
582.42646	0.22175
580.49790	0.18063
578.56934	0.15223
576.64077	0.16786
574.71221	0.17109
572.78364	0.19264
570.85508	0.35015
568.92651	0.60167
566.99795	0.78895
565.06938	0.83703
563.14082	0.41259
561.21226	0.16742
559.28369	0.06867
557.35513	0.09805
555.42656	0.19217
553.49800	0.31660
551.56943	0.39534
549.64087	0.36219
547.71230	0.34923
545.78374	0.33759
543.85518	0.27683
541.92661	0.21011
539.99805	0.15426
538.06948	0.12946
536.14092	0.13403
534.21235	0.14769
532.28379	0.16581
530.35522	0.17077
528.42666	0.15557
526.49810	0.16588
524.56953	0.20204
522.64097	0.19513
520.71240	0.16940
518.78384	0.21577
516.85527	0.30296
514.92671	0.28049
512.99814	0.18325
511.06958	0.15618
509.14102	0.24238
507.21245	0.35854
505.28389	0.30742
503.35532	0.22794
501.42676	0.20683
499.49819	0.19517
