3997.91411	0.06402
3995.98555	0.06354
3994.05698	0.06322
3992.12842	0.06370
3990.19985	0.06465
3988.27129	0.06504
3986.34272	0.06484
3984.41416	0.06509
3982.48560	0.06589
3980.55703	0.06648
3978.62847	0.06686
3976.69990	0.06731
3974.77134	0.06773
3972.84277	0.06800
3970.91421	0.06782
3968.98564	0.06728
3967.05708	0.06711
3965.12852	0.06742
3963.19995	0.06778
3961.27139	0.06816
3959.34282	0.06854
3957.41426	0.06856
3955.48569	0.06821
3953.55713	0.06788
3951.62856	0.06786
3949.70000	0.06789
3947.77144	0.06782
3945.84287	0.06795
3943.91431	0.06845
3941.98574	0.06898
3940.05718	0.06908
3938.12861	0.06887
3936.20005	0.06851
3934.27148	0.06833
3932.34292	0.06870
3930.41436	0.06895
3928.48579	0.06851
3926.55723	0.06820
3924.62866	0.06841
3922.70010	0.06844
3920.77153	0.06825
3918.84297	0.06814
3916.91440	0.06806
3914.98584	0.06799
3913.05728	0.06781
3911.12871	0.06743
3909.20015	0.06708
3907.27158	0.06704
3905.34302	0.06728
3903.41445	0.06786
3901.48589	0.06865
3899.55732	0.06906
3897.62876	0.06884
3895.70020	0.06789
3893.77163	0.06710
3891.84307	0.06735
3889.91450	0.06789
3887.98594	0.06771
3886.05737	0.06784
3884.12881	0.06868
3882.20024	0.06893
3880.27168	0.06875
3878.34312	0.06919
3876.41455	0.06966
3874.48599	0.06973
3872.55742	0.06985
3870.62886	0.07059
3868.70029	0.07174
3866.77173	0.07197
3864.84316	0.07167
3862.91460	0.07200
3860.98604	0.07244
3859.05747	0.07237
3857.12891	0.07218
3855.20034	0.07238
3853.27178	0.07348
3851.34321	0.07458
3849.41465	0.07413
3847.48608	0.07355
3845.55752	0.07377
3843.62896	0.07475
3841.70039	0.07599
3839.77183	0.07712
3837.84326	0.07830
3835.91470	0.07895
3833.98613	0.07902
3832.05757	0.07967
3830.12900	0.08087
3828.20044	0.08150
3826.27187	0.08149
3824.34331	0.08154
3822.41475	0.08225
3820.48618	0.08429
3818.55762	0.08597
3816.62905	0.08591
3814.70049	0.08594
3812.77192	0.08656
3810.84336	0.08712
3808.91479	0.08790
3806.98623	0.08925
3805.05767	0.09058
3803.12910	0.09165
3801.20054	0.09356
3799.27197	0.09557
3797.34341	0.09630
3795.41484	0.09687
3793.48628	0.09766
3791.55771	0.09848
3789.62915	0.09954
3787.70059	0.10100
3785.77202	0.10279
3783.84346	0.10465
3781.91489	0.10613
3779.98633	0.10733
3778.05776	0.10892
3776.12920	0.11051
3774.20063	0.11160
3772.27207	0.11264
3770.34351	0.11435
3768.41494	0.11691
3766.48638	0.11933
3764.55781	0.12141
3762.62925	0.12336
3760.70068	0.12533
3758.77212	0.12779
3756.84355	0.13017
3754.91499	0.13160
3752.98643	0.13316
3751.05786	0.13686
3749.12930	0.14237
3747.20073	0.14557
3745.27217	0.14749
3743.34360	0.15098
3741.41504	0.15489
3739.48647	0.15829
3737.55791	0.16254
3735.62935	0.16850
3733.70078	0.17517
3731.77222	0.18020
3729.84365	0.18441
3727.91509	0.18893
3725.98652	0.19452
3724.05796	0.20101
3722.12939	0.20751
3720.20083	0.21407
3718.27227	0.22057
3716.34370	0.22718
3714.41514	0.23425
3712.48657	0.24328
3710.55801	0.25658
3708.62944	0.27115
3706.70088	0.28313
3704.77231	0.29440
3702.84375	0.30736
3700.91519	0.32438
3698.98662	0.34334
3697.05806	0.36102
3695.12949	0.37926
3693.20093	0.39825
3691.27236	0.41872
3689.34380	0.44593
3687.41523	0.48065
3685.48667	0.51173
3683.55811	0.53821
3681.62954	0.56619
3679.70098	0.59764
3677.77241	0.63055
3675.84385	0.66917
3673.91528	0.72195
3671.98672	0.76556
3670.05815	0.80347
3668.12959	0.85636
3666.20103	0.90603
3664.27246	0.94731
3662.34390	0.99090
3660.41533	1.03800
3658.48677	1.08435
3656.55820	1.13349
3654.62964	1.18867
3652.70107	1.23490
3650.77251	1.27417
3648.84395	1.32833
3646.91538	1.39754
3644.98682	1.45042
3643.05825	1.49035
3641.12969	1.52999
3639.20112	1.57415
3637.27256	1.61940
3635.34399	1.66332
3633.41543	1.70676
3631.48687	1.74678
3629.55830	1.78690
3627.62974	1.84068
3625.70117	1.89228
3623.77261	1.92725
3621.84404	1.96023
3619.91548	1.99749
3617.98691	2.04219
3616.05835	2.08584
3614.12979	2.12263
3612.20122	2.16102
3610.27266	2.19993
3608.34409	2.23953
3606.41553	2.28202
3604.48696	2.32248
3602.55840	2.35940
3600.62983	2.39819
3598.70127	2.43868
3596.77271	2.47722
3594.84414	2.51611
3592.91558	2.55643
3590.98701	2.59453
3589.05845	2.63044
3587.12988	2.67387
3585.20132	2.72240
3583.27275	2.76401
3581.34419	2.80183
3579.41562	2.84119
3577.48706	2.88282
3575.55850	2.92520
3573.62993	2.96864
3571.70137	3.01145
3569.77280	3.05166
3567.84424	3.09148
3565.91567	3.14022
3563.98711	3.19179
3562.05854	3.23495
3560.12998	3.27662
3558.20142	3.32129
3556.27285	3.36704
3554.34429	3.41061
3552.41572	3.45529
3550.48716	3.50235
3548.55859	3.54709
3546.63003	3.59175
3544.70146	3.64141
3542.77290	3.69086
3540.84434	3.73687
3538.91577	3.78198
3536.98721	3.82760
3535.05864	3.87743
3533.13008	3.92744
3531.20151	3.97327
3529.27295	4.01712
3527.34438	4.06167
3525.41582	4.10526
3523.48726	4.14866
3521.55869	4.20119
3519.63013	4.25914
3517.70156	4.31102
3515.77300	4.35704
3513.84443	4.40038
3511.91587	4.44188
3509.98730	4.48586
3508.05874	4.53313
3506.13018	4.57983
3504.20161	4.62721
3502.27305	4.67914
3500.34448	4.73172
3498.41592	4.77920
3496.48735	4.82646
3494.55879	4.87906
3492.63022	4.93511
3490.70166	4.98583
3488.77310	5.02620
3486.84453	5.06528
3484.91597	5.10972
3482.98740	5.15497
3481.05884	5.20112
3479.13027	5.24941
3477.20171	5.29922
3475.27314	5.35309
3473.34458	5.40823
3471.41602	5.45706
3469.48745	5.50177
3467.55889	5.54705
3465.63032	5.58923
3463.70176	5.63290
3461.77319	5.68901
3459.84463	5.75303
3457.91606	5.80266
3455.98750	5.83990
3454.05894	5.88569
3452.13037	5.93985
3450.20181	5.98894
3448.27324	6.03083
3446.34468	6.07880
3444.41611	6.13220
3442.48755	6.18830
3440.55898	6.23669
3438.63042	6.26554
3436.70186	6.29246
3434.77329	6.33803
3432.84473	6.39847
3430.91616	6.45594
3428.98760	6.50625
3427.05903	6.54546
3425.13047	6.59377
3423.20190	6.65998
3421.27334	6.70513
3419.34478	6.71893
3417.41621	6.74638
3415.48765	6.80682
3413.55908	6.86706
3411.63052	6.92108
3409.70195	6.99229
3407.77339	7.07330
3405.84482	7.12110
3403.91626	7.12783
3401.98770	7.11495
3400.05913	7.12688
3398.13057	7.18446
3396.20200	7.23897
3394.27344	7.28563
3392.34487	7.33762
3390.41631	7.36411
3388.48774	7.35559
3386.55918	7.37538
3384.63062	7.43617
3382.70205	7.49126
3380.77349	7.55386
3378.84492	7.61832
3376.91636	7.63379
3374.98779	7.63175
3373.05923	7.67106
3371.13066	7.70032
3369.20210	7.72393
3367.27354	7.78043
3365.34497	7.85029
3363.41641	7.88685
3361.48784	7.85409
3359.55928	7.84739
3357.63071	7.87445
3355.70215	7.84694
3353.77358	7.81240
3351.84502	7.84438
3349.91646	7.88921
3347.98789	7.90800
3346.05933	7.90251
3344.13076	7.87022
3342.20220	7.86104
3340.27363	7.87872
3338.34507	7.90152
3336.41650	7.91894
3334.48794	7.94035
3332.55937	7.93752
3330.63081	7.90927
3328.70225	7.93897
3326.77368	8.01096
3324.84512	8.03354
3322.91655	7.99583
3320.98799	7.94707
3319.05942	7.90372
3317.13086	7.89758
3315.20229	7.93599
3313.27373	7.98312
3311.34517	8.00905
3309.41660	8.00660
3307.48804	8.01713
3305.55947	8.03513
3303.63091	8.01843
3301.70234	7.99685
3299.77378	8.00937
3297.84521	8.03560
3295.91665	8.05969
3293.98809	8.05237
3292.05952	8.03134
3290.13096	8.05373
3288.20239	8.11183
3286.27383	8.18236
3284.34526	8.20817
3282.41670	8.14791
3280.48813	8.05913
3278.55957	8.04912
3276.63101	8.13843
3274.70244	8.23535
3272.77388	8.23988
3270.84531	8.17136
3268.91675	8.13236
3266.98818	8.13430
3265.05962	8.13535
3263.13105	8.08871
3261.20249	8.03019
3259.27393	8.02373
3257.34536	8.03751
3255.41680	8.06170
3253.48823	8.06809
3251.55967	8.04199
3249.63110	8.06160
3247.70254	8.08261
3245.77397	8.00651
3243.84541	7.92050
3241.91685	7.95478
3239.98828	8.07906
3238.05972	8.15543
3236.13115	8.15945
3234.20259	8.15019
3232.27402	8.11528
3230.34546	8.04105
3228.41689	8.01654
3226.48833	8.07753
3224.55977	8.07902
3222.63120	7.98522
3220.70264	7.92770
3218.77407	7.94453
3216.84551	7.98765
3214.91694	7.96358
3212.98838	7.83877
3211.05981	7.74711
3209.13125	7.75680
3207.20269	7.77890
3205.27412	7.75532
3203.34556	7.69847
3201.41699	7.63621
3199.48843	7.61223
3197.55986	7.60809
3195.63130	7.57473
3193.70273	7.53465
3191.77417	7.50034
3189.84561	7.46191
3187.91704	7.42750
3185.98848	7.37573
3184.05991	7.29732
3182.13135	7.23881
3180.20278	7.23007
3178.27422	7.22624
3176.34565	7.15776
3174.41709	7.02156
3172.48853	6.90101
3170.55996	6.86476
3168.63140	6.86478
3166.70283	6.81705
3164.77427	6.74657
3162.84570	6.68530
3160.91714	6.61579
3158.98857	6.55070
3157.06001	6.49442
3155.13145	6.43583
3153.20288	6.36910
3151.27432	6.29150
3149.34575	6.20777
3147.41719	6.11963
3145.48862	6.04169
3143.56006	5.98219
3141.63149	5.92650
3139.70293	5.87152
3137.77437	5.81773
3135.84580	5.74780
3133.91724	5.66616
3131.98867	5.59408
3130.06011	5.53073
3128.13154	5.46584
3126.20298	5.39790
3124.27441	5.32751
3122.34585	5.25034
3120.41729	5.17015
3118.48872	5.09550
3116.56016	5.02693
3114.63159	4.96221
3112.70303	4.89969
3110.77446	4.83311
3108.84590	4.76111
3106.91733	4.69269
3104.98877	4.62793
3103.06021	4.56117
3101.13164	4.49231
3099.20308	4.42447
3097.27451	4.36031
3095.34595	4.29899
3093.41738	4.23819
3091.48882	4.17584
3089.56025	4.11325
3087.63169	4.05316
3085.70312	3.99429
3083.77456	3.93521
3081.84600	3.87636
3079.91743	3.81617
3077.98887	3.75586
3076.06030	3.69751
3074.13174	3.63926
3072.20317	3.58148
3070.27461	3.52497
3068.34604	3.46859
3066.41748	3.41218
3064.48892	3.35709
3062.56035	3.30386
3060.63179	3.25062
3058.70322	3.19661
3056.77466	3.14360
3054.84609	3.09185
3052.91753	3.03982
3050.98896	2.98863
3049.06040	2.93978
3047.13184	2.89168
3045.20327	2.84244
3043.27471	2.79253
3041.34614	2.74443
3039.41758	2.69912
3037.48901	2.65501
3035.56045	2.61079
3033.63188	2.56649
3031.70332	2.52267
3029.77476	2.47989
3027.84619	2.43788
3025.91763	2.39556
3023.98906	2.35285
3022.06050	2.31075
3020.13193	2.26993
3018.20337	2.22996
3016.27480	2.19043
3014.34624	2.15194
3012.41768	2.11448
3010.48911	2.07767
3008.56055	2.04164
3006.63198	2.00587
3004.70342	1.97011
3002.77485	1.93540
3000.84629	1.90190
2998.91772	1.86850
2996.98916	1.83552
2995.06060	1.80404
2993.13203	1.77369
2991.20347	1.74384
2989.27490	1.71452
2987.34634	1.68544
2985.41777	1.65675
2983.48921	1.62893
2981.56064	1.60147
2979.63208	1.57403
2977.70352	1.54709
2975.77495	1.52115
2973.84639	1.49594
2971.91782	1.47101
2969.98926	1.44681
2968.06069	1.42321
2966.13213	1.39943
2964.20356	1.37588
2962.27500	1.35292
2960.34644	1.32979
2958.41787	1.30626
2956.48931	1.28253
2954.56074	1.25869
2952.63218	1.23518
2950.70361	1.21241
2948.77505	1.19037
2946.84648	1.16894
2944.91792	1.14820
2942.98936	1.12788
2941.06079	1.10758
2939.13223	1.08764
2937.20366	1.06803
2935.27510	1.04858
2933.34653	1.02941
2931.41797	1.01026
2929.48940	0.99126
2927.56084	0.97284
2925.63228	0.95490
2923.70371	0.93724
2921.77515	0.91989
2919.84658	0.90311
2917.91802	0.88664
2915.98945	0.86995
2914.06089	0.85328
2912.13232	0.83715
2910.20376	0.82200
2908.27520	0.80762
2906.34663	0.79329
2904.41807	0.77896
2902.48950	0.76506
2900.56094	0.75172
2898.63237	0.73870
2896.70381	0.72576
2894.77524	0.71312
2892.84668	0.70099
2890.91812	0.68914
2888.98955	0.67751
2887.06099	0.66631
2885.13242	0.65563
2883.20386	0.64557
2881.27529	0.63613
2879.34673	0.62676
2877.41816	0.61688
2875.48960	0.60670
2873.56104	0.59693
2871.63247	0.58749
2869.70391	0.57743
2867.77534	0.56642
2865.84678	0.55517
2863.91821	0.54429
2861.98965	0.53375
2860.06108	0.52352
2858.13252	0.51393
2856.20396	0.50493
2854.27539	0.49608
2852.34683	0.48739
2850.41826	0.47913
2848.48970	0.47113
2846.56113	0.46332
2844.63257	0.45594
2842.70400	0.44904
2840.77544	0.44254
2838.84687	0.43640
2836.91831	0.43051
2834.98975	0.42469
2833.06118	0.41884
2831.13262	0.41296
2829.20405	0.40707
2827.27549	0.40125
2825.34692	0.39557
2823.41836	0.38976
2821.48979	0.38389
2819.56123	0.37837
2817.63267	0.37302
2815.70410	0.36760
2813.77554	0.36223
2811.84697	0.35698
2809.91841	0.35169
2807.98984	0.34638
2806.06128	0.34128
2804.13271	0.33649
2802.20415	0.33182
2800.27559	0.32713
2798.34702	0.32247
2796.41846	0.31786
2794.48989	0.31334
2792.56133	0.30893
2790.63276	0.30455
2788.70420	0.30022
2786.77563	0.29596
2784.84707	0.29176
2782.91851	0.28776
2780.98994	0.28383
2779.06138	0.27988
2777.13281	0.27619
2775.20425	0.27270
2773.27568	0.26914
2771.34712	0.26552
2769.41855	0.26200
2767.48999	0.25857
2765.56143	0.25523
2763.63286	0.25199
2761.70430	0.24874
2759.77573	0.24555
2757.84717	0.24257
2755.91860	0.23965
2753.99004	0.23665
2752.06147	0.23367
2750.13291	0.23077
2748.20435	0.22792
2746.27578	0.22512
2744.34722	0.22241
2742.41865	0.21979
2740.49009	0.21728
2738.56152	0.21495
2736.63296	0.21273
2734.70439	0.21048
2732.77583	0.20811
2730.84727	0.20572
2728.91870	0.20341
2726.99014	0.20125
2725.06157	0.19922
2723.13301	0.19718
2721.20444	0.19520
2719.27588	0.19328
2717.34731	0.19125
2715.41875	0.18927
2713.49019	0.18748
2711.56162	0.18579
2709.63306	0.18422
2707.70449	0.18266
2705.77593	0.18102
2703.84736	0.17937
2701.91880	0.17780
2699.99023	0.17644
2698.06167	0.17521
2696.13311	0.17383
2694.20454	0.17238
2692.27598	0.17109
2690.34741	0.16996
2688.41885	0.16878
2686.49028	0.16754
2684.56172	0.16637
2682.63315	0.16525
2680.70459	0.16407
2678.77603	0.16289
2676.84746	0.16179
2674.91890	0.16078
2672.99033	0.15985
2671.06177	0.15891
2669.13320	0.15800
2667.20464	0.15728
2665.27607	0.15662
2663.34751	0.15585
2661.41895	0.15495
2659.49038	0.15395
2657.56182	0.15309
2655.63325	0.15247
2653.70469	0.15191
2651.77612	0.15140
2649.84756	0.15087
2647.91899	0.15031
2645.99043	0.14975
2644.06187	0.14904
2642.13330	0.14832
2640.20474	0.14797
2638.27617	0.14777
2636.34761	0.14730
2634.41904	0.14668
2632.49048	0.14619
2630.56191	0.14578
2628.63335	0.14540
2626.70479	0.14527
2624.77622	0.14517
2622.84766	0.14493
2620.91909	0.14481
2618.99053	0.14469
2617.06196	0.14437
2615.13340	0.14410
2613.20483	0.14410
2611.27627	0.14421
2609.34771	0.14413
2607.41914	0.14387
2605.49058	0.14375
2603.56201	0.14372
2601.63345	0.14366
2599.70488	0.14366
2597.77632	0.14359
2595.84775	0.14346
2593.91919	0.14355
2591.99062	0.14380
2590.06206	0.14393
2588.13350	0.14400
2586.20493	0.14416
2584.27637	0.14441
2582.34780	0.14472
2580.41924	0.14504
2578.49067	0.14531
2576.56211	0.14550
2574.63354	0.14573
2572.70498	0.14602
2570.77642	0.14629
2568.84785	0.14663
2566.91929	0.14710
2564.99072	0.14757
2563.06216	0.14793
2561.13359	0.14824
2559.20503	0.14859
2557.27646	0.14915
2555.34790	0.14987
2553.41934	0.15041
2551.49077	0.15080
2549.56221	0.15129
2547.63364	0.15190
2545.70508	0.15247
2543.77651	0.15294
2541.84795	0.15343
2539.91938	0.15401
2537.99082	0.15463
2536.06226	0.15521
2534.13369	0.15571
2532.20513	0.15633
2530.27656	0.15717
2528.34800	0.15806
2526.41943	0.15881
2524.49087	0.15938
2522.56230	0.15996
2520.63374	0.16074
2518.70518	0.16158
2516.77661	0.16244
2514.84805	0.16330
2512.91948	0.16409
2510.99092	0.16481
2509.06235	0.16542
2507.13379	0.16598
2505.20522	0.16675
2503.27666	0.16769
2501.34810	0.16857
2499.41953	0.16943
2497.49097	0.17027
2495.56240	0.17103
2493.63384	0.17173
2491.70527	0.17243
2489.77671	0.17331
2487.84814	0.17436
2485.91958	0.17531
2483.99102	0.17607
2482.06245	0.17688
2480.13389	0.17788
2478.20532	0.17886
2476.27676	0.17966
2474.34819	0.18047
2472.41963	0.18135
2470.49106	0.18219
2468.56250	0.18306
2466.63394	0.18396
2464.70537	0.18476
2462.77681	0.18554
2460.84824	0.18655
2458.91968	0.18761
2456.99111	0.18852
2455.06255	0.18947
2453.13398	0.19048
2451.20542	0.19149
2449.27686	0.19247
2447.34829	0.19338
2445.41973	0.19425
2443.49116	0.19523
2441.56260	0.19630
2439.63403	0.19737
2437.70547	0.19833
2435.77690	0.19918
2433.84834	0.20013
2431.91978	0.20125
2429.99121	0.20246
2428.06265	0.20354
2426.13408	0.20451
2424.20552	0.20556
2422.27695	0.20667
2420.34839	0.20767
2418.41982	0.20872
2416.49126	0.20999
2414.56270	0.21127
2412.63413	0.21239
2410.70557	0.21339
2408.77700	0.21446
2406.84844	0.21563
2404.91987	0.21677
2402.99131	0.21785
2401.06274	0.21901
2399.13418	0.22029
2397.20562	0.22156
2395.27705	0.22276
2393.34849	0.22387
2391.41992	0.22504
2389.49136	0.22650
2387.56279	0.22829
2385.63423	0.23047
2383.70566	0.23337
2381.77710	0.23707
2379.84854	0.24137
2377.91997	0.24626
2375.99141	0.25172
2374.06284	0.25782
2372.13428	0.26508
2370.20571	0.27346
2368.27715	0.28173
2366.34858	0.28897
2364.42002	0.29591
2362.49146	0.30295
2360.56289	0.30747
2358.63433	0.30729
2356.70576	0.30467
2354.77720	0.30145
2352.84863	0.29579
2350.92007	0.28863
2348.99150	0.28464
2347.06294	0.28546
2345.13437	0.29089
2343.20581	0.29863
2341.27725	0.30370
2339.34868	0.30557
2337.42012	0.30615
2335.49155	0.30612
2333.56299	0.30602
2331.63442	0.30653
2329.70586	0.30708
2327.77729	0.30719
2325.84873	0.30726
2323.92017	0.30700
2321.99160	0.30579
2320.06304	0.30424
2318.13447	0.30325
2316.20591	0.30267
2314.27734	0.30235
2312.34878	0.30261
2310.42021	0.30328
2308.49165	0.30370
2306.56309	0.30365
2304.63452	0.30355
2302.70596	0.30398
2300.77739	0.30495
2298.84883	0.30611
2296.92026	0.30728
2294.99170	0.30835
2293.06313	0.30930
2291.13457	0.31030
2289.20601	0.31150
2287.27744	0.31280
2285.34888	0.31404
2283.42031	0.31547
2281.49175	0.31737
2279.56318	0.31951
2277.63462	0.32160
2275.70605	0.32372
2273.77749	0.32591
2271.84893	0.32810
2269.92036	0.33024
2267.99180	0.33237
2266.06323	0.33445
2264.13467	0.33636
2262.20610	0.33818
2260.27754	0.34010
2258.34897	0.34215
2256.42041	0.34425
2254.49185	0.34622
2252.56328	0.34808
2250.63472	0.34998
2248.70615	0.35199
2246.77759	0.35418
2244.84902	0.35653
2242.92046	0.35879
2240.99189	0.36077
2239.06333	0.36266
2237.13477	0.36476
2235.20620	0.36690
2233.27764	0.36897
2231.34907	0.37110
2229.42051	0.37331
2227.49194	0.37552
2225.56338	0.37766
2223.63481	0.37985
2221.70625	0.38213
2219.77769	0.38438
2217.84912	0.38653
2215.92056	0.38866
2213.99199	0.39079
2212.06343	0.39291
2210.13486	0.39499
2208.20630	0.39704
2206.27773	0.39909
2204.34917	0.40113
2202.42061	0.40319
2200.49204	0.40527
2198.56348	0.40737
2196.63491	0.40935
2194.70635	0.41114
2192.77778	0.41293
2190.84922	0.41486
2188.92065	0.41683
2186.99209	0.41877
2185.06353	0.42065
2183.13496	0.42238
2181.20640	0.42391
2179.27783	0.42543
2177.34927	0.42710
2175.42070	0.42876
2173.49214	0.43037
2171.56357	0.43193
2169.63501	0.43330
2167.70645	0.43454
2165.77788	0.43578
2163.84932	0.43699
2161.92075	0.43809
2159.99219	0.43915
2158.06362	0.44016
2156.13506	0.44108
2154.20649	0.44195
2152.27793	0.44279
2150.34937	0.44361
2148.42080	0.44440
2146.49224	0.44515
2144.56367	0.44580
2142.63511	0.44629
2140.70654	0.44649
2138.77798	0.44652
2136.84941	0.44666
2134.92085	0.44696
2132.99229	0.44721
2131.06372	0.44718
2129.13516	0.44693
2127.20659	0.44663
2125.27803	0.44629
2123.34946	0.44588
2121.42090	0.44548
2119.49233	0.44510
2117.56377	0.44463
2115.63521	0.44403
2113.70664	0.44338
2111.77808	0.44263
2109.84951	0.44176
2107.92095	0.44081
2105.99238	0.43979
2104.06382	0.43866
2102.13525	0.43740
2100.20669	0.43605
2098.27812	0.43471
2096.34956	0.43338
2094.42100	0.43196
2092.49243	0.43052
2090.56387	0.42903
2088.63530	0.42736
2086.70674	0.42561
2084.77817	0.42385
2082.84961	0.42205
2080.92104	0.42020
2078.99248	0.41837
2077.06392	0.41648
2075.13535	0.41448
2073.20679	0.41239
2071.27822	0.41014
2069.34966	0.40781
2067.42109	0.40555
2065.49253	0.40329
2063.56396	0.40092
2061.63540	0.39861
2059.70684	0.39642
2057.77827	0.39407
2055.84971	0.39147
2053.92114	0.38892
2051.99258	0.38652
2050.06401	0.38408
2048.13545	0.38155
2046.20688	0.37902
2044.27832	0.37645
2042.34976	0.37374
2040.42119	0.37103
2038.49263	0.36849
2036.56406	0.36595
2034.63550	0.36323
2032.70693	0.36043
2030.77837	0.35767
2028.84980	0.35487
2026.92124	0.35213
2024.99268	0.34950
2023.06411	0.34686
2021.13555	0.34417
2019.20698	0.34150
2017.27842	0.33886
2015.34985	0.33617
2013.42129	0.33349
2011.49272	0.33082
2009.56416	0.32817
2007.63560	0.32548
2005.70703	0.32278
2003.77847	0.32012
2001.84990	0.31748
1999.92134	0.31482
1997.99277	0.31220
1996.06421	0.30966
1994.13564	0.30725
1992.20708	0.30487
1990.27852	0.30239
1988.34995	0.29993
1986.42139	0.29751
1984.49282	0.29511
1982.56426	0.29279
1980.63569	0.29042
1978.70713	0.28796
1976.77856	0.28564
1974.85000	0.28360
1972.92144	0.28167
1970.99287	0.27968
1969.06431	0.27761
1967.13574	0.27549
1965.20718	0.27338
1963.27861	0.27141
1961.35005	0.26955
1959.42148	0.26766
1957.49292	0.26576
1955.56436	0.26390
1953.63579	0.26214
1951.70723	0.26043
1949.77866	0.25880
1947.85010	0.25728
1945.92153	0.25585
1943.99297	0.25443
1942.06440	0.25297
1940.13584	0.25146
1938.20728	0.25002
1936.27871	0.24867
1934.35015	0.24736
1932.42158	0.24609
1930.49302	0.24483
1928.56445	0.24363
1926.63589	0.24256
1924.70732	0.24168
1922.77876	0.24079
1920.85020	0.23978
1918.92163	0.23889
1916.99307	0.23798
1915.06450	0.23693
1913.13594	0.23598
1911.20737	0.23528
1909.27881	0.23462
1907.35024	0.23395
1905.42168	0.23333
1903.49312	0.23269
1901.56455	0.23203
1899.63599	0.23152
1897.70742	0.23115
1895.77886	0.23072
1893.85029	0.23030
1891.92173	0.22999
1889.99316	0.22987
1888.06460	0.22969
1886.13604	0.22940
1884.20747	0.22913
1882.27891	0.22891
1880.35034	0.22875
1878.42178	0.22864
1876.49321	0.22858
1874.56465	0.22853
1872.63608	0.22858
1870.70752	0.22878
1868.77896	0.22917
1866.85039	0.22936
1864.92183	0.22922
1862.99326	0.22922
1861.06470	0.22949
1859.13613	0.22993
1857.20757	0.23028
1855.27900	0.23070
1853.35044	0.23122
1851.42187	0.23178
1849.49331	0.23232
1847.56475	0.23291
1845.63618	0.23361
1843.70762	0.23446
1841.77905	0.23526
1839.85049	0.23578
1837.92192	0.23652
1835.99336	0.23752
1834.06479	0.23854
1832.13623	0.23945
1830.20767	0.24066
1828.27910	0.24209
1826.35054	0.24323
1824.42197	0.24445
1822.49341	0.24563
1820.56484	0.24680
1818.63628	0.24815
1816.70771	0.24979
1814.77915	0.25145
1812.85059	0.25314
1810.92202	0.25504
1808.99346	0.25704
1807.06489	0.25896
1805.13633	0.26077
1803.20776	0.26292
1801.27920	0.26552
1799.35063	0.26840
1797.42207	0.27086
1795.49351	0.27315
1793.56494	0.27588
1791.63638	0.27944
1789.70781	0.28285
1787.77925	0.28546
1785.85068	0.28853
1783.92212	0.29216
1781.99355	0.29609
1780.06499	0.30024
1778.13643	0.30439
1776.20786	0.30816
1774.27930	0.31221
1772.35073	0.31789
1770.42217	0.32429
1768.49360	0.32966
1766.56504	0.33477
1764.63647	0.34006
1762.70791	0.34579
1760.77935	0.35301
1758.85078	0.35988
1756.92222	0.36685
1754.99365	0.37452
1753.06509	0.38146
1751.13652	0.38955
1749.20796	0.39984
1747.27939	0.41029
1745.35083	0.41957
1743.42227	0.42924
1741.49370	0.43978
1739.56514	0.45224
1737.63657	0.46471
1735.70801	0.47537
1733.77944	0.49120
1731.85088	0.51058
1729.92231	0.52615
1727.99375	0.54184
1726.06519	0.55856
1724.13662	0.57668
1722.20806	0.59624
1720.27949	0.61418
1718.35093	0.63501
1716.42236	0.66632
1714.49380	0.69688
1712.56523	0.72181
1710.63667	0.74572
1708.70811	0.77109
1706.77954	0.79963
1704.85098	0.83409
1702.92241	0.86528
1700.99385	0.89602
1699.06528	0.94193
1697.13672	0.98490
1695.20815	1.02954
1693.27959	1.07282
1691.35103	1.10754
1689.42246	1.14766
1687.49390	1.19011
1685.56533	1.23071
1683.63677	1.29328
1681.70820	1.35905
1679.77964	1.40176
1677.85107	1.44269
1675.92251	1.48990
1673.99395	1.54792
1672.06538	1.59911
1670.13682	1.64951
1668.20825	1.71571
1666.27969	1.76981
1664.35112	1.81529
1662.42256	1.87310
1660.49399	1.93982
1658.56543	1.99174
1656.63687	2.03237
1654.70830	2.06833
1652.77974	2.12399
1650.85117	2.17767
1648.92261	2.19727
1646.99404	2.22350
1645.06548	2.25572
1643.13691	2.27745
1641.20835	2.28872
1639.27979	2.29697
1637.35122	2.30142
1635.42266	2.30179
1633.49409	2.29584
1631.56553	2.28221
1629.63696	2.26375
1627.70840	2.23327
1625.77983	2.19865
1623.85127	2.15780
1621.92271	2.10832
1619.99414	2.06280
1618.06558	2.01706
1616.13701	1.95174
1614.20845	1.88588
1612.27988	1.83622
1610.35132	1.78474
1608.42275	1.72944
1606.49419	1.67515
1604.56562	1.62511
1602.63706	1.57705
1600.70850	1.53016
1598.77993	1.48666
1596.85137	1.44583
1594.92280	1.40632
1592.99424	1.36757
1591.06567	1.33178
1589.13711	1.29880
1587.20854	1.26863
1585.27998	1.24088
1583.35142	1.21490
1581.42285	1.19102
1579.49429	1.17062
1577.56572	1.15261
1575.63716	1.13111
1573.70859	1.11249
1571.78003	1.10084
1569.85146	1.08901
1567.92290	1.07569
1565.99434	1.06587
1564.06577	1.05877
1562.13721	1.05334
1560.20864	1.05003
1558.28008	1.04792
1556.35151	1.04682
1554.42295	1.04609
1552.49438	1.04532
1550.56582	1.04307
1548.63726	1.03868
1546.70869	1.03262
1544.78013	1.02382
1542.85156	1.01157
1540.92300	0.99449
1538.99443	0.96882
1537.06587	0.94985
1535.13730	0.93680
1533.20874	0.91929
1531.28018	0.90052
1529.35161	0.88704
1527.42305	0.87418
1525.49448	0.86058
1523.56592	0.84908
1521.63735	0.83839
1519.70879	0.82748
1517.78022	0.81805
1515.85166	0.80741
1513.92310	0.79634
1511.99453	0.78650
1510.06597	0.77750
1508.13740	0.76883
1506.20884	0.75585
1504.28027	0.74483
1502.35171	0.73869
1500.42314	0.73322
1498.49458	0.72720
1496.56602	0.71998
1494.63745	0.71284
1492.70889	0.70751
1490.78032	0.70290
1488.85176	0.69741
1486.92319	0.69230
1484.99463	0.68839
1483.06606	0.68518
1481.13750	0.68253
1479.20894	0.68063
1477.28037	0.67958
1475.35181	0.67909
1473.42324	0.67867
1471.49468	0.67759
1469.56611	0.67579
1467.63755	0.67370
1465.70898	0.67152
1463.78042	0.66947
1461.85186	0.66810
1459.92329	0.66752
1457.99473	0.66734
1456.06616	0.66640
1454.13760	0.66419
1452.20903	0.66174
1450.28047	0.65912
1448.35190	0.65640
1446.42334	0.65356
1444.49478	0.65083
1442.56621	0.64827
1440.63765	0.64572
1438.70908	0.64299
1436.78052	0.63956
1434.85195	0.63606
1432.92339	0.63355
1430.99482	0.63178
1429.06626	0.63063
1427.13770	0.63011
1425.20913	0.63016
1423.28057	0.63064
1421.35200	0.63104
1419.42344	0.63136
1417.49487	0.63140
1415.56631	0.63052
1413.63774	0.62961
1411.70918	0.62942
1409.78062	0.62988
1407.85205	0.63067
1405.92349	0.63169
1403.99492	0.63258
1402.06636	0.63264
1400.13779	0.63185
1398.20923	0.63038
1396.28066	0.62833
1394.35210	0.62530
1392.42354	0.62152
1390.49497	0.61784
1388.56641	0.61404
1386.63784	0.60963
1384.70928	0.60508
1382.78071	0.60087
1380.85215	0.59699
1378.92358	0.59359
1376.99502	0.59084
1375.06646	0.58875
1373.13789	0.58722
1371.20933	0.58627
1369.28076	0.58562
1367.35220	0.58463
1365.42363	0.58323
1363.49507	0.58182
1361.56650	0.58037
1359.63794	0.57884
1357.70937	0.57754
1355.78081	0.57650
1353.85225	0.57564
1351.92368	0.57489
1349.99512	0.57428
1348.06655	0.57369
1346.13799	0.57292
1344.20942	0.57212
1342.28086	0.57156
1340.35229	0.57123
1338.42373	0.57076
1336.49517	0.57002
1334.56660	0.56937
1332.63804	0.56903
1330.70947	0.56901
1328.78091	0.56932
1326.85234	0.56990
1324.92378	0.57051
1322.99521	0.57096
1321.06665	0.57125
1319.13809	0.57155
1317.20952	0.57185
1315.28096	0.57192
1313.35239	0.57163
1311.42383	0.57100
1309.49526	0.57032
1307.56670	0.56985
1305.63813	0.56945
1303.70957	0.56885
1301.78101	0.56804
1299.85244	0.56704
1297.92388	0.56593
1295.99531	0.56485
1294.06675	0.56385
1292.13818	0.56285
1290.20962	0.56178
1288.28105	0.56054
1286.35249	0.55920
1284.42393	0.55808
1282.49536	0.55717
1280.56680	0.55620
1278.63823	0.55510
1276.70967	0.55400
1274.78110	0.55302
1272.85254	0.55205
1270.92397	0.55114
1268.99541	0.55039
1267.06685	0.54978
1265.13828	0.54913
1263.20972	0.54839
1261.28115	0.54766
1259.35259	0.54696
1257.42402	0.54631
1255.49546	0.54584
1253.56689	0.54557
1251.63833	0.54552
1249.70977	0.54568
1247.78120	0.54577
1245.85264	0.54552
1243.92407	0.54504
1241.99551	0.54433
1240.06694	0.54326
1238.13838	0.54182
1236.20981	0.54009
1234.28125	0.53822
1232.35269	0.53635
1230.42412	0.53454
1228.49556	0.53289
1226.56699	0.53128
1224.63843	0.52966
1222.70986	0.52825
1220.78130	0.52719
1218.85273	0.52621
1216.92417	0.52509
1214.99561	0.52397
1213.06704	0.52304
1211.13848	0.52230
1209.20991	0.52159
1207.28135	0.52076
1205.35278	0.51987
1203.42422	0.51906
1201.49565	0.51837
1199.56709	0.51769
1197.63853	0.51707
1195.70996	0.51660
1193.78140	0.51627
1191.85283	0.51590
1189.92427	0.51550
1187.99570	0.51522
1186.06714	0.51515
1184.13857	0.51525
1182.21001	0.51548
1180.28145	0.51587
1178.35288	0.51666
1176.42432	0.51789
1174.49575	0.51905
1172.56719	0.51966
1170.63862	0.51974
1168.71006	0.51955
1166.78149	0.51921
1164.85293	0.51880
1162.92437	0.51838
1160.99580	0.51791
1159.06724	0.51722
1157.13867	0.51622
1155.21011	0.51507
1153.28154	0.51377
1151.35298	0.51206
1149.42441	0.50991
1147.49585	0.50760
1145.56729	0.50532
1143.63872	0.50297
1141.71016	0.50067
1139.78159	0.49867
1137.85303	0.49701
1135.92446	0.49571
1133.99590	0.49477
1132.06733	0.49399
1130.13877	0.49321
1128.21021	0.49242
1126.28164	0.49149
1124.35308	0.49043
1122.42451	0.48952
1120.49595	0.48881
1118.56738	0.48815
1116.63882	0.48763
1114.71025	0.48731
1112.78169	0.48720
1110.85312	0.48733
1108.92456	0.48771
1106.99600	0.48833
1105.06743	0.48931
1103.13887	0.49064
1101.21030	0.49214
1099.28174	0.49409
1097.35317	0.49688
1095.42461	0.50018
1093.49604	0.50366
1091.56748	0.50753
1089.63892	0.51195
1087.71035	0.51705
1085.78179	0.52293
1083.85322	0.52922
1081.92466	0.53522
1079.99609	0.54030
1078.06753	0.54380
1076.13896	0.54487
1074.21040	0.54298
1072.28184	0.53845
1070.35327	0.53232
1068.42471	0.52569
1066.49614	0.51915
1064.56758	0.51279
1062.63901	0.50683
1060.71045	0.50165
1058.78188	0.49729
1056.85332	0.49358
1054.92476	0.49034
1052.99619	0.48728
1051.06763	0.48429
1049.13906	0.48155
1047.21050	0.47932
1045.28193	0.47776
1043.35337	0.47662
1041.42480	0.47551
1039.49624	0.47432
1037.56768	0.47333
1035.63911	0.47263
1033.71055	0.47208
1031.78198	0.47170
1029.85342	0.47169
1027.92485	0.47193
1025.99629	0.47207
1024.06772	0.47215
1022.13916	0.47249
1020.21060	0.47313
1018.28203	0.47397
1016.35347	0.47482
1014.42490	0.47565
1012.49634	0.47668
1010.56777	0.47791
1008.63921	0.47922
1006.71064	0.48070
1004.78208	0.48256
1002.85352	0.48499
1000.92495	0.48792
998.99639	0.49105
997.06782	0.49452
995.13926	0.49868
993.21069	0.50296
991.28213	0.50633
989.35356	0.50866
987.42500	0.51036
985.49644	0.51151
983.56787	0.51237
981.63931	0.51339
979.71074	0.51476
977.78218	0.51644
975.85361	0.51853
973.92505	0.52115
971.99648	0.52421
970.06792	0.52759
968.13936	0.53130
966.21079	0.53546
964.28223	0.54001
962.35366	0.54474
960.42510	0.54970
958.49653	0.55500
956.56797	0.56050
954.63940	0.56627
952.71084	0.57249
950.78228	0.57894
948.85371	0.58520
946.92515	0.59120
944.99658	0.59724
943.06802	0.60369
941.13945	0.61044
939.21089	0.61674
937.28232	0.62232
935.35376	0.62740
933.42520	0.63246
931.49663	0.63831
929.56807	0.64455
927.63950	0.65030
925.71094	0.65586
923.78237	0.66144
921.85381	0.66726
919.92524	0.67382
917.99668	0.68075
916.06812	0.68740
914.13955	0.69428
912.21099	0.70211
910.28242	0.71054
908.35386	0.71849
906.42529	0.72580
904.49673	0.73387
902.56816	0.74308
900.63960	0.75203
898.71104	0.76049
896.78247	0.76960
894.85391	0.77952
892.92534	0.78994
890.99678	0.80057
889.06821	0.81059
887.13965	0.82033
885.21108	0.83162
883.28252	0.84429
881.35396	0.85592
879.42539	0.86658
877.49683	0.87835
875.56826	0.89059
873.63970	0.90109
871.71113	0.91115
869.78257	0.92295
867.85400	0.93535
865.92544	0.94654
863.99687	0.95628
862.06831	0.96616
860.13975	0.97763
858.21118	0.98955
856.28262	1.00059
854.35405	1.01165
852.42549	1.02447
850.49692	1.03885
848.56836	1.05226
846.63979	1.06379
844.71123	1.07380
842.78267	1.08242
840.85410	1.09279
838.92554	1.10551
836.99697	1.11627
835.06841	1.12459
833.13984	1.13395
831.21128	1.14560
829.28271	1.15949
827.35415	1.17255
825.42559	1.17894
823.49702	1.18530
821.56846	1.20092
819.63989	1.22088
817.71133	1.23533
815.78276	1.23903
813.85420	1.23503
811.92563	1.23668
809.99707	1.25079
808.06851	1.26485
806.13994	1.27713
804.21138	1.29597
802.28281	1.30882
800.35425	1.30583
798.42568	1.29676
796.49712	1.28894
794.56855	1.28697
792.63999	1.29110
790.71143	1.29716
788.78286	1.29452
786.85430	1.25626
784.92573	1.20540
782.99717	1.18880
781.06860	1.22171
779.14004	1.29285
777.21147	1.34049
775.28291	1.35807
773.35435	1.43179
771.42578	1.52755
769.49722	1.49304
767.56865	1.36975
765.64009	1.27148
763.71152	1.26946
761.78296	1.33213
759.85439	1.30404
757.92583	1.21447
755.99727	1.16021
754.06870	1.13161
752.14014	1.15013
750.21157	1.29106
748.28301	1.44172
746.35444	1.23307
744.42588	1.06360
742.49731	1.05407
740.56875	1.12491
738.64019	1.05618
736.71162	0.83954
734.78306	0.70460
732.85449	0.69643
730.92593	0.72634
728.99736	0.61173
727.06880	0.45703
725.14023	0.40224
723.21167	0.43383
721.28311	0.35005
719.35454	0.12867
717.42598	0.03652
715.49741	0.00895
713.56885	-0.03332
711.64028	-0.04825
709.71172	-0.03759
707.78315	0.04808
705.85459	0.21022
703.92603	0.31010
701.99746	0.33013
700.06890	0.28890
698.14033	0.22467
696.21177	0.23722
694.28320	0.34375
692.35464	0.39404
690.42607	0.37435
688.49751	0.32061
686.56895	0.24408
684.64038	0.22727
682.71182	0.27806
680.78325	0.26857
678.85469	0.17666
676.92612	0.13665
674.99756	0.13089
673.06899	0.12292
671.14043	0.15103
669.21187	0.24487
667.28330	0.43960
665.35474	0.50705
663.42617	0.35330
661.49761	0.26638
659.56904	0.28719
657.64048	0.33079
655.71191	0.39356
653.78335	0.49763
651.85479	0.50847
649.92622	0.47626
647.99766	0.50025
646.06909	0.40583
644.14053	0.26518
642.21196	0.22215
640.28340	0.21434
638.35483	0.18292
636.42627	0.15322
634.49771	0.17520
632.56914	0.30654
630.64058	0.59774
628.71201	0.75852
626.78345	0.48850
624.85488	0.35992
622.92632	0.33838
620.99775	0.35723
619.06919	0.44260
617.14062	0.53308
615.21206	0.44072
613.28350	0.34360
611.35493	0.36164
609.42637	0.39480
607.49780	0.28801
605.56924	0.21801
603.64067	0.21242
601.71211	0.21355
599.78354	0.22725
597.85498	0.30010
595.92642	0.36447
593.99785	0.30063
592.06929	0.24383
590.14072	0.28529
588.21216	0.33763
586.28359	0.32716
584.35503	0.29911
582.42646	0.27657
580.49790	0.28600
578.56934	0.28165
576.64077	0.19786
574.71221	0.11643
572.78364	0.16232
570.85508	0.36199
568.92651	0.54352
566.99795	0.51545
565.06938	0.39755
563.14082	0.25631
561.21226	0.20151
559.28369	0.20896
557.35513	0.21543
555.42656	0.24423
553.49800	0.28034
551.56943	0.26902
549.64087	0.27732
547.71230	0.30107
545.78374	0.26726
543.85518	0.24071
541.92661	0.24719
539.99805	0.25243
538.06948	0.26641
536.14092	0.29678
534.21235	0.26496
532.28379	0.23818
530.35522	0.29884
528.42666	0.32707
526.49810	0.22294
524.56953	0.13802
522.64097	0.15575
520.71240	0.24647
518.78384	0.32459
516.85527	0.30271
514.92671	0.24032
512.99814	0.20760
511.06958	0.20165
509.14102	0.22753
507.21245	0.27822
505.28389	0.25649
503.35532	0.20019
501.42676	0.20327
499.49819	0.21795
