3997.91411	0.06709
3995.98555	0.06718
3994.05698	0.06710
3992.12842	0.06735
3990.19985	0.06795
3988.27129	0.06843
3986.34272	0.06847
3984.41416	0.06859
3982.48560	0.06905
3980.55703	0.06932
3978.62847	0.06951
3976.69990	0.07009
3974.77134	0.07079
3972.84277	0.07123
3970.91421	0.07107
3968.98564	0.07048
3967.05708	0.07005
3965.12852	0.07010
3963.19995	0.07063
3961.27139	0.07126
3959.34282	0.07164
3957.41426	0.07169
3955.48569	0.07141
3953.55713	0.07120
3951.62856	0.07137
3949.70000	0.07163
3947.77144	0.07179
3945.84287	0.07180
3943.91431	0.07199
3941.98574	0.07256
3940.05718	0.07283
3938.12861	0.07252
3936.20005	0.07202
3934.27148	0.07185
3932.34292	0.07236
3930.41436	0.07293
3928.48579	0.07273
3926.55723	0.07228
3924.62866	0.07238
3922.70010	0.07240
3920.77153	0.07204
3918.84297	0.07216
3916.91440	0.07258
3914.98584	0.07238
3913.05728	0.07146
3911.12871	0.07045
3909.20015	0.06991
3907.27158	0.07034
3905.34302	0.07200
3903.41445	0.07432
3901.48589	0.07574
3899.55732	0.07587
3897.62876	0.07485
3895.70020	0.07287
3893.77163	0.07184
3891.84307	0.07264
3889.91450	0.07333
3887.98594	0.07267
3886.05737	0.07294
3884.12881	0.07462
3882.20024	0.07540
3880.27168	0.07523
3878.34312	0.07461
3876.41455	0.07379
3874.48599	0.07405
3872.55742	0.07542
3870.62886	0.07700
3868.70029	0.07780
3866.77173	0.07707
3864.84316	0.07660
3862.91460	0.07707
3860.98604	0.07679
3859.05747	0.07592
3857.12891	0.07633
3855.20034	0.07871
3853.27178	0.08219
3851.34321	0.08307
3849.41465	0.08073
3847.48608	0.07891
3845.55752	0.07861
3843.62896	0.07979
3841.70039	0.08175
3839.77183	0.08387
3837.84326	0.08604
3835.91470	0.08661
3833.98613	0.08540
3832.05757	0.08458
3830.12900	0.08495
3828.20044	0.08579
3826.27187	0.08653
3824.34331	0.08708
3822.41475	0.08836
3820.48618	0.09126
3818.55762	0.09298
3816.62905	0.09278
3814.70049	0.09249
3812.77192	0.09155
3810.84336	0.09074
3808.91479	0.09125
3806.98623	0.09326
3805.05767	0.09572
3803.12910	0.09777
3801.20054	0.10039
3799.27197	0.10224
3797.34341	0.10213
3795.41484	0.10177
3793.48628	0.10147
3791.55771	0.10137
3789.62915	0.10203
3787.70059	0.10367
3785.77202	0.10604
3783.84346	0.10813
3781.91489	0.10926
3779.98633	0.11063
3778.05776	0.11287
3776.12920	0.11456
3774.20063	0.11549
3772.27207	0.11680
3770.34351	0.11921
3768.41494	0.12191
3766.48638	0.12377
3764.55781	0.12560
3762.62925	0.12732
3760.70068	0.12933
3758.77212	0.13262
3756.84355	0.13585
3754.91499	0.13801
3752.98643	0.14095
3751.05786	0.14631
3749.12930	0.15242
3747.20073	0.15561
3745.27217	0.15819
3743.34360	0.16314
3741.41504	0.16847
3739.48647	0.17317
3737.55791	0.17976
3735.62935	0.18989
3733.70078	0.20042
3731.77222	0.20625
3729.84365	0.21026
3727.91509	0.21515
3725.98652	0.22161
3724.05796	0.22819
3722.12939	0.23257
3720.20083	0.23528
3718.27227	0.23743
3716.34370	0.24006
3714.41514	0.24468
3712.48657	0.25431
3710.55801	0.27134
3708.62944	0.28914
3706.70088	0.30203
3704.77231	0.31369
3702.84375	0.32669
3700.91519	0.34268
3698.98662	0.36029
3697.05806	0.37728
3695.12949	0.39504
3693.20093	0.41389
3691.27236	0.43477
3689.34380	0.46144
3687.41523	0.49377
3685.48667	0.52281
3683.55811	0.54806
3681.62954	0.57513
3679.70098	0.60633
3677.77241	0.64012
3675.84385	0.68024
3673.91528	0.73274
3671.98672	0.77470
3670.05815	0.81219
3668.12959	0.86440
3666.20103	0.91189
3664.27246	0.95158
3662.34390	0.99514
3660.41533	1.04295
3658.48677	1.08982
3656.55820	1.13941
3654.62964	1.19475
3652.70107	1.24081
3650.77251	1.28117
3648.84395	1.33906
3646.91538	1.41068
3644.98682	1.46099
3643.05825	1.49857
3641.12969	1.53807
3639.20112	1.58275
3637.27256	1.62917
3635.34399	1.67568
3633.41543	1.72220
3631.48687	1.76541
3629.55830	1.80872
3627.62974	1.86390
3625.70117	1.91459
3623.77261	1.94827
3621.84404	1.97959
3619.91548	2.01496
3617.98691	2.05825
3616.05835	2.10089
3614.12979	2.13723
3612.20122	2.17569
3610.27266	2.21463
3608.34409	2.25582
3606.41553	2.30059
3604.48696	2.33962
3602.55840	2.37334
3600.62983	2.41106
3598.70127	2.45223
3596.77271	2.49204
3594.84414	2.53355
3592.91558	2.57602
3590.98701	2.61328
3589.05845	2.64712
3587.12988	2.68937
3585.20132	2.73681
3583.27275	2.77641
3581.34419	2.81262
3579.41562	2.85150
3577.48706	2.89332
3575.55850	2.93573
3573.62993	2.97861
3571.70137	3.01969
3569.77280	3.05873
3567.84424	3.10223
3565.91567	3.15680
3563.98711	3.20839
3562.05854	3.24933
3560.12998	3.28953
3558.20142	3.33167
3556.27285	3.37499
3554.34429	3.41806
3552.41572	3.46294
3550.48716	3.50977
3548.55859	3.55401
3546.63003	3.59780
3544.70146	3.64730
3542.77290	3.69795
3540.84434	3.74343
3538.91577	3.78701
3536.98721	3.83317
3535.05864	3.88375
3533.13008	3.93442
3531.20151	3.98179
3529.27295	4.02686
3527.34438	4.07271
3525.41582	4.11913
3523.48726	4.16598
3521.55869	4.21571
3519.63013	4.26377
3517.70156	4.30654
3515.77300	4.34725
3513.84443	4.39283
3511.91587	4.44507
3509.98730	4.49808
3508.05874	4.54807
3506.13018	4.59535
3504.20161	4.63981
3502.27305	4.68598
3500.34448	4.73458
3498.41592	4.77925
3496.48735	4.82352
3494.55879	4.86824
3492.63022	4.91101
3490.70166	4.96157
3488.77310	5.02260
3486.84453	5.08101
3484.91597	5.13287
3482.98740	5.18017
3481.05884	5.21611
3479.13027	5.24948
3477.20171	5.30224
3475.27314	5.36398
3473.34458	5.41232
3471.41602	5.45556
3469.48745	5.50528
3467.55889	5.55866
3465.63032	5.61121
3463.70176	5.66216
3461.77319	5.71222
3459.84463	5.75649
3457.91606	5.79235
3455.98750	5.83568
3454.05894	5.89638
3452.13037	5.95526
3450.20181	5.99288
3448.27324	6.02695
3446.34468	6.08953
3444.41611	6.16338
3442.48755	6.21569
3440.55898	6.25329
3438.63042	6.30112
3436.70186	6.36378
3434.77329	6.41927
3432.84473	6.45601
3430.91616	6.48917
3428.98760	6.53380
3427.05903	6.57459
3425.13047	6.60742
3423.20190	6.64653
3421.27334	6.69773
3419.34478	6.75472
3417.41621	6.81592
3415.48765	6.87995
3413.55908	6.93419
3411.63052	6.98328
3409.70195	7.02991
3407.77339	7.07075
3405.84482	7.11116
3403.91626	7.17084
3401.98770	7.20912
3400.05913	7.20577
3398.13057	7.24088
3396.20200	7.31938
3394.27344	7.36571
3392.34487	7.37102
3390.41631	7.40063
3388.48774	7.44433
3386.55918	7.46463
3384.63062	7.48042
3382.70205	7.55109
3380.77349	7.67634
3378.84492	7.72069
3376.91636	7.66736
3374.98779	7.64641
3373.05923	7.68196
3371.13066	7.68880
3369.20210	7.68701
3367.27354	7.74025
3365.34497	7.81465
3363.41641	7.86154
3361.48784	7.87833
3359.55928	7.88439
3357.63071	7.85127
3355.70215	7.78396
3353.77358	7.74276
3351.84502	7.75274
3349.91646	7.79041
3347.98789	7.84104
3346.05933	7.87793
3344.13076	7.89557
3342.20220	7.90742
3340.27363	7.88558
3338.34507	7.87121
3336.41650	7.89830
3334.48794	7.94976
3332.55937	8.00329
3330.63081	8.03323
3328.70225	8.02900
3326.77368	8.01331
3324.84512	7.98662
3322.91655	7.96889
3320.98799	8.03417
3319.05942	8.11597
3317.13086	8.10641
3315.20229	8.03140
3313.27373	7.98628
3311.34517	8.00547
3309.41660	8.02835
3307.48804	8.02100
3305.55947	8.02528
3303.63091	8.10246
3301.70234	8.19395
3299.77378	8.19267
3297.84521	8.14038
3295.91665	8.10318
3293.98809	8.03933
3292.05952	7.98121
3290.13096	8.02637
3288.20239	8.11577
3286.27383	8.13165
3284.34526	8.09773
3282.41670	8.08093
3280.48813	8.05521
3278.55957	8.01106
3276.63101	7.99657
3274.70244	7.99476
3272.77388	7.97158
3270.84531	8.01436
3268.91675	8.15408
3266.98818	8.22488
3265.05962	8.17839
3263.13105	8.18112
3261.20249	8.23919
3259.27393	8.18358
3257.34536	8.10022
3255.41680	8.15624
3253.48823	8.25996
3251.55967	8.24584
3249.63110	8.14141
3247.70254	8.10051
3245.77397	8.14380
3243.84541	8.13008
3241.91685	8.07397
3239.98828	8.13824
3238.05972	8.26122
3236.13115	8.26554
3234.20259	8.17917
3232.27402	8.12322
3230.34546	8.16129
3228.41689	8.22426
3226.48833	8.19611
3224.55977	8.11428
3222.63120	8.03574
3220.70264	7.95363
3218.77407	7.89975
3216.84551	7.87139
3214.91694	7.83882
3212.98838	7.81724
3211.05981	7.81632
3209.13125	7.82189
3207.20269	7.81377
3205.27412	7.79143
3203.34556	7.73813
3201.41699	7.66334
3199.48843	7.62444
3197.55986	7.61299
3195.63130	7.59504
3193.70273	7.59253
3191.77417	7.59644
3189.84561	7.53822
3187.91704	7.44949
3185.98848	7.41648
3184.05991	7.39743
3182.13135	7.32960
3180.20278	7.24094
3178.27422	7.15775
3176.34565	7.08538
3174.41709	7.02429
3172.48853	6.98089
3170.55996	6.94164
3168.63140	6.87931
3166.70283	6.81195
3164.77427	6.76048
3162.84570	6.71696
3160.91714	6.66905
3158.98857	6.60714
3157.06001	6.53137
3155.13145	6.45476
3153.20288	6.39029
3151.27432	6.33203
3149.34575	6.26015
3147.41719	6.18338
3145.48862	6.11212
3143.56006	6.03253
3141.63149	5.95444
3139.70293	5.88981
3137.77437	5.83052
3135.84580	5.76678
3133.91724	5.69593
3131.98867	5.62253
3130.06011	5.54556
3128.13154	5.46650
3126.20298	5.39284
3124.27441	5.32575
3122.34585	5.25770
3120.41729	5.18716
3118.48872	5.11807
3116.56016	5.04775
3114.63159	4.97629
3112.70303	4.90996
3110.77446	4.84811
3108.84590	4.78211
3106.91733	4.70990
3104.98877	4.63759
3103.06021	4.56804
3101.13164	4.50070
3099.20308	4.43762
3097.27451	4.37686
3095.34595	4.31188
3093.41738	4.24535
3091.48882	4.18167
3089.56025	4.11658
3087.63169	4.05068
3085.70312	3.98911
3083.77456	3.93019
3081.84600	3.87069
3079.91743	3.81017
3077.98887	3.75016
3076.06030	3.69220
3074.13174	3.63608
3072.20317	3.58077
3070.27461	3.52357
3068.34604	3.46451
3066.41748	3.40647
3064.48892	3.35059
3062.56035	3.29772
3060.63179	3.24604
3058.70322	3.19296
3056.77466	3.14037
3054.84609	3.08930
3052.91753	3.03851
3050.98896	2.98774
3049.06040	2.93690
3047.13184	2.88661
3045.20327	2.83684
3043.27471	2.78781
3041.34614	2.74137
3039.41758	2.69716
3037.48901	2.65275
3035.56045	2.60669
3033.63188	2.56039
3031.70332	2.51568
3029.77476	2.47181
3027.84619	2.42857
3025.91763	2.38659
3023.98906	2.34544
3022.06050	2.30493
3020.13193	2.26483
3018.20337	2.22494
3016.27480	2.18546
3014.34624	2.14680
3012.41768	2.10923
3010.48911	2.07213
3008.56055	2.03517
3006.63198	1.99927
3004.70342	1.96430
3002.77485	1.92965
3000.84629	1.89605
2998.91772	1.86345
2996.98916	1.83087
2995.06060	1.79847
2993.13203	1.76709
2991.20347	1.73710
2989.27490	1.70778
2987.34634	1.67802
2985.41777	1.64839
2983.48921	1.62014
2981.56064	1.59299
2979.63208	1.56617
2977.70352	1.53964
2975.77495	1.51357
2973.84639	1.48782
2971.91782	1.46255
2969.98926	1.43798
2968.06069	1.41354
2966.13213	1.38928
2964.20356	1.36584
2962.27500	1.34267
2960.34644	1.31920
2958.41787	1.29572
2956.48931	1.27224
2954.56074	1.24907
2952.63218	1.22676
2950.70361	1.20504
2948.77505	1.18333
2946.84648	1.16159
2944.91792	1.14040
2942.98936	1.12003
2941.06079	1.10020
2939.13223	1.08084
2937.20366	1.06190
2935.27510	1.04340
2933.34653	1.02515
2931.41797	1.00643
2929.48940	0.98743
2927.56084	0.96892
2925.63228	0.95085
2923.70371	0.93322
2921.77515	0.91628
2919.84658	0.89987
2917.91802	0.88396
2915.98945	0.86848
2914.06089	0.85277
2912.13232	0.83680
2910.20376	0.82136
2908.27520	0.80660
2906.34663	0.79223
2904.41807	0.77830
2902.48950	0.76483
2900.56094	0.75173
2898.63237	0.73897
2896.70381	0.72614
2894.77524	0.71326
2892.84668	0.70105
2890.91812	0.68950
2888.98955	0.67810
2887.06099	0.66682
2885.13242	0.65606
2883.20386	0.64600
2881.27529	0.63614
2879.34673	0.62607
2877.41816	0.61596
2875.48960	0.60616
2873.56104	0.59662
2871.63247	0.58688
2869.70391	0.57663
2867.77534	0.56591
2865.84678	0.55505
2863.91821	0.54458
2861.98965	0.53468
2860.06108	0.52501
2858.13252	0.51566
2856.20396	0.50679
2854.27539	0.49801
2852.34683	0.48925
2850.41826	0.48080
2848.48970	0.47267
2846.56113	0.46494
2844.63257	0.45758
2842.70400	0.45054
2840.77544	0.44394
2838.84687	0.43775
2836.91831	0.43186
2834.98975	0.42612
2833.06118	0.42024
2831.13262	0.41417
2829.20405	0.40814
2827.27549	0.40224
2825.34692	0.39659
2823.41836	0.39097
2821.48979	0.38508
2819.56123	0.37916
2817.63267	0.37363
2815.70410	0.36845
2813.77554	0.36332
2811.84697	0.35809
2809.91841	0.35276
2807.98984	0.34746
2806.06128	0.34233
2804.13271	0.33746
2802.20415	0.33276
2800.27559	0.32805
2798.34702	0.32332
2796.41846	0.31869
2794.48989	0.31417
2792.56133	0.30976
2790.63276	0.30543
2788.70420	0.30115
2786.77563	0.29689
2784.84707	0.29272
2782.91851	0.28875
2780.98994	0.28478
2779.06138	0.28085
2777.13281	0.27723
2775.20425	0.27372
2773.27568	0.27018
2771.34712	0.26673
2769.41855	0.26328
2767.48999	0.25969
2765.56143	0.25606
2763.63286	0.25266
2761.70430	0.24950
2759.77573	0.24641
2757.84717	0.24333
2755.91860	0.24027
2753.99004	0.23737
2752.06147	0.23467
2750.13291	0.23196
2748.20435	0.22918
2746.27578	0.22640
2744.34722	0.22374
2742.41865	0.22121
2740.49009	0.21873
2738.56152	0.21636
2736.63296	0.21408
2734.70439	0.21169
2732.77583	0.20925
2730.84727	0.20701
2728.91870	0.20494
2726.99014	0.20288
2725.06157	0.20083
2723.13301	0.19879
2721.20444	0.19681
2719.27588	0.19497
2717.34731	0.19312
2715.41875	0.19121
2713.49019	0.18942
2711.56162	0.18775
2709.63306	0.18608
2707.70449	0.18441
2705.77593	0.18275
2703.84736	0.18115
2701.91880	0.17968
2699.99023	0.17829
2698.06167	0.17691
2696.13311	0.17552
2694.20454	0.17415
2692.27598	0.17283
2690.34741	0.17148
2688.41885	0.17013
2686.49028	0.16887
2684.56172	0.16766
2682.63315	0.16652
2680.70459	0.16552
2678.77603	0.16457
2676.84746	0.16343
2674.91890	0.16216
2672.99033	0.16111
2671.06177	0.16019
2669.13320	0.15915
2667.20464	0.15825
2665.27607	0.15760
2663.34751	0.15693
2661.41895	0.15613
2659.49038	0.15530
2657.56182	0.15454
2655.63325	0.15382
2653.70469	0.15312
2651.77612	0.15247
2649.84756	0.15184
2647.91899	0.15127
2645.99043	0.15082
2644.06187	0.15027
2642.13330	0.14956
2640.20474	0.14898
2638.27617	0.14856
2636.34761	0.14817
2634.41904	0.14774
2632.49048	0.14733
2630.56191	0.14691
2628.63335	0.14654
2626.70479	0.14628
2624.77622	0.14601
2622.84766	0.14572
2620.91909	0.14550
2618.99053	0.14524
2617.06196	0.14492
2615.13340	0.14473
2613.20483	0.14475
2611.27627	0.14474
2609.34771	0.14452
2607.41914	0.14429
2605.49058	0.14430
2603.56201	0.14436
2601.63345	0.14434
2599.70488	0.14436
2597.77632	0.14434
2595.84775	0.14427
2593.91919	0.14441
2591.99062	0.14469
2590.06206	0.14493
2588.13350	0.14517
2586.20493	0.14537
2584.27637	0.14546
2582.34780	0.14553
2580.41924	0.14569
2578.49067	0.14590
2576.56211	0.14613
2574.63354	0.14640
2572.70498	0.14666
2570.77642	0.14694
2568.84785	0.14737
2566.91929	0.14789
2564.99072	0.14839
2563.06216	0.14881
2561.13359	0.14918
2559.20503	0.14951
2557.27646	0.14984
2555.34790	0.15029
2553.41934	0.15086
2551.49077	0.15144
2549.56221	0.15198
2547.63364	0.15255
2545.70508	0.15314
2543.77651	0.15365
2541.84795	0.15412
2539.91938	0.15468
2537.99082	0.15535
2536.06226	0.15604
2534.13369	0.15663
2532.20513	0.15728
2530.27656	0.15806
2528.34800	0.15885
2526.41943	0.15957
2524.49087	0.16027
2522.56230	0.16090
2520.63374	0.16151
2518.70518	0.16223
2516.77661	0.16311
2514.84805	0.16401
2512.91948	0.16487
2510.99092	0.16562
2509.06235	0.16630
2507.13379	0.16704
2505.20522	0.16784
2503.27666	0.16859
2501.34810	0.16929
2499.41953	0.17002
2497.49097	0.17077
2495.56240	0.17156
2493.63384	0.17243
2491.70527	0.17338
2489.77671	0.17436
2487.84814	0.17524
2485.91958	0.17594
2483.99102	0.17660
2482.06245	0.17740
2480.13389	0.17836
2478.20532	0.17936
2476.27676	0.18033
2474.34819	0.18128
2472.41963	0.18216
2470.49106	0.18306
2468.56250	0.18402
2466.63394	0.18492
2464.70537	0.18568
2462.77681	0.18639
2460.84824	0.18722
2458.91968	0.18816
2456.99111	0.18913
2455.06255	0.19002
2453.13398	0.19088
2451.20542	0.19180
2449.27686	0.19284
2447.34829	0.19392
2445.41973	0.19495
2443.49116	0.19589
2441.56260	0.19681
2439.63403	0.19778
2437.70547	0.19873
2435.77690	0.19978
2433.84834	0.20097
2431.91978	0.20206
2429.99121	0.20300
2428.06265	0.20397
2426.13408	0.20505
2424.20552	0.20623
2422.27695	0.20733
2420.34839	0.20825
2418.41982	0.20925
2416.49126	0.21044
2414.56270	0.21160
2412.63413	0.21271
2410.70557	0.21387
2408.77700	0.21504
2406.84844	0.21621
2404.91987	0.21740
2402.99131	0.21850
2401.06274	0.21950
2399.13418	0.22058
2397.20562	0.22183
2395.27705	0.22316
2393.34849	0.22448
2391.41992	0.22590
2389.49136	0.22782
2387.56279	0.23099
2385.63423	0.23655
2383.70566	0.24543
2381.77710	0.25756
2379.84854	0.27235
2377.91997	0.28999
2375.99141	0.31099
2374.06284	0.33554
2372.13428	0.36382
2370.20571	0.39556
2368.27715	0.42881
2366.34858	0.45987
2364.42002	0.48423
2362.49146	0.50064
2360.56289	0.51127
2358.63433	0.51351
2356.70576	0.50078
2354.77720	0.47489
2352.84863	0.44198
2350.92007	0.40879
2348.99150	0.38953
2347.06294	0.39019
2345.13437	0.41071
2343.20581	0.44169
2341.27725	0.45973
2339.34868	0.45986
2337.42012	0.45486
2335.49155	0.45125
2333.56299	0.44770
2331.63442	0.44360
2329.70586	0.43944
2327.77729	0.43449
2325.84873	0.42665
2323.92017	0.41565
2321.99160	0.40343
2320.06304	0.39189
2318.13447	0.38134
2316.20591	0.37196
2314.27734	0.36496
2312.34878	0.36060
2310.42021	0.35695
2308.49165	0.35179
2306.56309	0.34507
2304.63452	0.33879
2302.70596	0.33494
2300.77739	0.33309
2298.84883	0.33156
2296.92026	0.33005
2294.99170	0.32869
2293.06313	0.32710
2291.13457	0.32525
2289.20601	0.32353
2287.27744	0.32197
2285.34888	0.32062
2283.42031	0.32030
2281.49175	0.32168
2279.56318	0.32418
2277.63462	0.32695
2275.70605	0.32966
2273.77749	0.33220
2271.84893	0.33450
2269.92036	0.33658
2267.99180	0.33850
2266.06323	0.34022
2264.13467	0.34170
2262.20610	0.34311
2260.27754	0.34463
2258.34897	0.34626
2256.42041	0.34788
2254.49185	0.34934
2252.56328	0.35071
2250.63472	0.35227
2248.70615	0.35402
2246.77759	0.35585
2244.84902	0.35772
2242.92046	0.35963
2240.99189	0.36156
2239.06333	0.36350
2237.13477	0.36541
2235.20620	0.36735
2233.27764	0.36946
2231.34907	0.37167
2229.42051	0.37382
2227.49194	0.37593
2225.56338	0.37804
2223.63481	0.38023
2221.70625	0.38250
2219.77769	0.38476
2217.84912	0.38694
2215.92056	0.38902
2213.99199	0.39102
2212.06343	0.39300
2210.13486	0.39500
2208.20630	0.39703
2206.27773	0.39913
2204.34917	0.40130
2202.42061	0.40355
2200.49204	0.40574
2198.56348	0.40770
2196.63491	0.40955
2194.70635	0.41141
2192.77778	0.41339
2190.84922	0.41541
2188.92065	0.41729
2186.99209	0.41908
2185.06353	0.42089
2183.13496	0.42263
2181.20640	0.42425
2179.27783	0.42584
2177.34927	0.42750
2175.42070	0.42917
2173.49214	0.43083
2171.56357	0.43233
2169.63501	0.43356
2167.70645	0.43473
2165.77788	0.43602
2163.84932	0.43732
2161.92075	0.43849
2159.99219	0.43954
2158.06362	0.44055
2156.13506	0.44153
2154.20649	0.44243
2152.27793	0.44324
2150.34937	0.44390
2148.42080	0.44455
2146.49224	0.44531
2144.56367	0.44598
2142.63511	0.44637
2140.70654	0.44661
2138.77798	0.44690
2136.84941	0.44720
2134.92085	0.44747
2132.99229	0.44763
2131.06372	0.44761
2129.13516	0.44749
2127.20659	0.44730
2125.27803	0.44703
2123.34946	0.44661
2121.42090	0.44610
2119.49233	0.44560
2117.56377	0.44512
2115.63521	0.44458
2113.70664	0.44387
2111.77808	0.44311
2109.84951	0.44240
2107.92095	0.44160
2105.99238	0.44059
2104.06382	0.43941
2102.13525	0.43812
2100.20669	0.43684
2098.27812	0.43557
2096.34956	0.43420
2094.42100	0.43262
2092.49243	0.43106
2090.56387	0.42962
2088.63530	0.42807
2086.70674	0.42640
2084.77817	0.42470
2082.84961	0.42295
2080.92104	0.42108
2078.99248	0.41918
2077.06392	0.41725
2075.13535	0.41527
2073.20679	0.41321
2071.27822	0.41098
2069.34966	0.40867
2067.42109	0.40644
2065.49253	0.40427
2063.56396	0.40200
2061.63540	0.39970
2059.70684	0.39738
2057.77827	0.39496
2055.84971	0.39244
2053.92114	0.38992
2051.99258	0.38746
2050.06401	0.38499
2048.13545	0.38250
2046.20688	0.37997
2044.27832	0.37737
2042.34976	0.37473
2040.42119	0.37209
2038.49263	0.36948
2036.56406	0.36692
2034.63550	0.36435
2032.70693	0.36166
2030.77837	0.35891
2028.84980	0.35613
2026.92124	0.35339
2024.99268	0.35068
2023.06411	0.34801
2021.13555	0.34535
2019.20698	0.34267
2017.27842	0.33996
2015.34985	0.33719
2013.42129	0.33444
2011.49272	0.33175
2009.56416	0.32912
2007.63560	0.32654
2005.70703	0.32393
2003.77847	0.32127
2001.84990	0.31861
1999.92134	0.31601
1997.99277	0.31342
1996.06421	0.31088
1994.13564	0.30851
1992.20708	0.30620
1990.27852	0.30371
1988.34995	0.30116
1986.42139	0.29862
1984.49282	0.29610
1982.56426	0.29370
1980.63569	0.29138
1978.70713	0.28907
1976.77856	0.28684
1974.85000	0.28471
1972.92144	0.28263
1970.99287	0.28057
1969.06431	0.27860
1967.13574	0.27669
1965.20718	0.27472
1963.27861	0.27271
1961.35005	0.27074
1959.42148	0.26882
1957.49292	0.26693
1955.56436	0.26510
1953.63579	0.26333
1951.70723	0.26158
1949.77866	0.25996
1947.85010	0.25849
1945.92153	0.25712
1943.99297	0.25579
1942.06440	0.25435
1940.13584	0.25268
1938.20728	0.25106
1936.27871	0.24956
1934.35015	0.24811
1932.42158	0.24684
1930.49302	0.24572
1928.56445	0.24469
1926.63589	0.24371
1924.70732	0.24292
1922.77876	0.24217
1920.85020	0.24120
1918.92163	0.24023
1916.99307	0.23923
1915.06450	0.23803
1913.13594	0.23699
1911.20737	0.23636
1909.27881	0.23584
1907.35024	0.23516
1905.42168	0.23437
1903.49312	0.23365
1901.56455	0.23304
1899.63599	0.23255
1897.70742	0.23222
1895.77886	0.23196
1893.85029	0.23160
1891.92173	0.23116
1889.99316	0.23099
1888.06460	0.23079
1886.13604	0.23032
1884.20747	0.22988
1882.27891	0.22961
1880.35034	0.22951
1878.42178	0.22946
1876.49321	0.22941
1874.56465	0.22939
1872.63608	0.22957
1870.70752	0.23011
1868.77896	0.23101
1866.85039	0.23128
1864.92183	0.23073
1862.99326	0.23034
1861.06470	0.23040
1859.13613	0.23077
1857.20757	0.23118
1855.27900	0.23164
1853.35044	0.23208
1851.42187	0.23255
1849.49331	0.23317
1847.56475	0.23407
1845.63618	0.23521
1843.70762	0.23634
1841.77905	0.23680
1839.85049	0.23685
1837.92192	0.23747
1835.99336	0.23844
1834.06479	0.23944
1832.13623	0.24060
1830.20767	0.24226
1828.27910	0.24375
1826.35054	0.24465
1824.42197	0.24582
1822.49341	0.24687
1820.56484	0.24777
1818.63628	0.24899
1816.70771	0.25061
1814.77915	0.25226
1812.85059	0.25408
1810.92202	0.25629
1808.99346	0.25843
1807.06489	0.26024
1805.13633	0.26197
1803.20776	0.26422
1801.27920	0.26699
1799.35063	0.26992
1797.42207	0.27239
1795.49351	0.27481
1793.56494	0.27780
1791.63638	0.28148
1789.70781	0.28452
1787.77925	0.28662
1785.85068	0.28952
1783.92212	0.29331
1781.99355	0.29732
1780.06499	0.30138
1778.13643	0.30548
1776.20786	0.30949
1774.27930	0.31409
1772.35073	0.32031
1770.42217	0.32656
1768.49360	0.33134
1766.56504	0.33596
1764.63647	0.34103
1762.70791	0.34697
1760.77935	0.35453
1758.85078	0.36144
1756.92222	0.36833
1754.99365	0.37596
1753.06509	0.38299
1751.13652	0.39165
1749.20796	0.40266
1747.27939	0.41317
1745.35083	0.42205
1743.42227	0.43143
1741.49370	0.44181
1739.56514	0.45402
1737.63657	0.46631
1735.70801	0.47729
1733.77944	0.49392
1731.85088	0.51327
1729.92231	0.52804
1727.99375	0.54303
1726.06519	0.55940
1724.13662	0.57746
1722.20806	0.59710
1720.27949	0.61537
1718.35093	0.63702
1716.42236	0.66938
1714.49380	0.69971
1712.56523	0.72346
1710.63667	0.74650
1708.70811	0.77180
1706.77954	0.80083
1704.85098	0.83573
1702.92241	0.86710
1700.99385	0.89809
1699.06528	0.94390
1697.13672	0.98603
1695.20815	1.02964
1693.27959	1.07187
1691.35103	1.10575
1689.42246	1.14536
1687.49390	1.18756
1685.56533	1.22823
1683.63677	1.29091
1681.70820	1.35543
1679.77964	1.39645
1677.85107	1.43585
1675.92251	1.48160
1673.99395	1.53849
1672.06538	1.58886
1670.13682	1.63821
1668.20825	1.70314
1666.27969	1.75577
1664.35112	1.79966
1662.42256	1.85544
1660.49399	1.91908
1658.56543	1.96841
1656.63687	2.00795
1654.70830	2.04434
1652.77974	2.10227
1650.85117	2.15816
1648.92261	2.17849
1646.99404	2.20300
1645.06548	2.23016
1643.13691	2.24897
1641.20835	2.26043
1639.27979	2.27020
1637.35122	2.27667
1635.42266	2.27916
1633.49409	2.27473
1631.56553	2.26206
1629.63696	2.24493
1627.70840	2.21685
1625.77983	2.18508
1623.85127	2.14562
1621.92271	2.09538
1619.99414	2.05020
1618.06558	2.00657
1616.13701	1.94281
1614.20845	1.87713
1612.27988	1.82776
1610.35132	1.77685
1608.42275	1.72198
1606.49419	1.66791
1604.56562	1.61785
1602.63706	1.56947
1600.70850	1.52231
1598.77993	1.47871
1596.85137	1.43703
1594.92280	1.39626
1592.99424	1.35728
1591.06567	1.32174
1589.13711	1.28827
1587.20854	1.25681
1585.27998	1.22737
1583.35142	1.19978
1581.42285	1.17472
1579.49429	1.15342
1577.56572	1.13444
1575.63716	1.11119
1573.70859	1.09048
1571.78003	1.07740
1569.85146	1.06431
1567.92290	1.04962
1565.99434	1.03843
1564.06577	1.02988
1562.13721	1.02350
1560.20864	1.01983
1558.28008	1.01555
1556.35151	1.01067
1554.42295	1.00736
1552.49438	1.00433
1550.56582	1.00031
1548.63726	0.99452
1546.70869	0.98782
1544.78013	0.97980
1542.85156	0.96959
1540.92300	0.95512
1538.99443	0.93191
1537.06587	0.91408
1535.13730	0.90225
1533.20874	0.88709
1531.28018	0.87042
1529.35161	0.85824
1527.42305	0.84729
1525.49448	0.83603
1523.56592	0.82626
1521.63735	0.81687
1519.70879	0.80695
1517.78022	0.79822
1515.85166	0.78834
1513.92310	0.77818
1511.99453	0.76955
1510.06597	0.76221
1508.13740	0.75591
1506.20884	0.74518
1504.28027	0.73391
1502.35171	0.72731
1500.42314	0.72214
1498.49458	0.71717
1496.56602	0.71134
1494.63745	0.70510
1492.70889	0.70029
1490.78032	0.69663
1488.85176	0.69260
1486.92319	0.68803
1484.99463	0.68391
1483.06606	0.68091
1481.13750	0.67875
1479.20894	0.67700
1477.28037	0.67587
1475.35181	0.67552
1473.42324	0.67568
1471.49468	0.67491
1469.56611	0.67268
1467.63755	0.67030
1465.70898	0.66840
1463.78042	0.66666
1461.85186	0.66509
1459.92329	0.66439
1457.99473	0.66424
1456.06616	0.66236
1454.13760	0.65901
1452.20903	0.65620
1450.28047	0.65360
1448.35190	0.65102
1446.42334	0.64838
1444.49478	0.64587
1442.56621	0.64354
1440.63765	0.64119
1438.70908	0.63894
1436.78052	0.63634
1434.85195	0.63313
1432.92339	0.63036
1430.99482	0.62835
1429.06626	0.62674
1427.13770	0.62556
1425.20913	0.62508
1423.28057	0.62504
1421.35200	0.62492
1419.42344	0.62481
1417.49487	0.62412
1415.56631	0.62241
1413.63774	0.62096
1411.70918	0.62034
1409.78062	0.62036
1407.85205	0.62078
1405.92349	0.62152
1403.99492	0.62199
1402.06636	0.62172
1400.13779	0.62110
1398.20923	0.62005
1396.28066	0.61827
1394.35210	0.61558
1392.42354	0.61220
1390.49497	0.60898
1388.56641	0.60600
1386.63784	0.60269
1384.70928	0.59899
1382.78071	0.59549
1380.85215	0.59236
1378.92358	0.58959
1376.99502	0.58743
1375.06646	0.58606
1373.13789	0.58493
1371.20933	0.58375
1369.28076	0.58279
1367.35220	0.58175
1365.42363	0.58056
1363.49507	0.57945
1361.56650	0.57811
1359.63794	0.57644
1357.70937	0.57508
1355.78081	0.57408
1353.85225	0.57318
1351.92368	0.57223
1349.99512	0.57132
1348.06655	0.57054
1346.13799	0.56980
1344.20942	0.56902
1342.28086	0.56832
1340.35229	0.56787
1338.42373	0.56733
1336.49517	0.56638
1334.56660	0.56546
1332.63804	0.56490
1330.70947	0.56459
1328.78091	0.56448
1326.85234	0.56463
1324.92378	0.56493
1322.99521	0.56522
1321.06665	0.56544
1319.13809	0.56556
1317.20952	0.56536
1315.28096	0.56487
1313.35239	0.56430
1311.42383	0.56367
1309.49526	0.56302
1307.56670	0.56241
1305.63813	0.56188
1303.70957	0.56138
1301.78101	0.56080
1299.85244	0.56004
1297.92388	0.55912
1295.99531	0.55813
1294.06675	0.55722
1292.13818	0.55634
1290.20962	0.55526
1288.28105	0.55405
1286.35249	0.55297
1284.42393	0.55213
1282.49536	0.55136
1280.56680	0.55050
1278.63823	0.54949
1276.70967	0.54842
1274.78110	0.54742
1272.85254	0.54665
1270.92397	0.54608
1268.99541	0.54548
1267.06685	0.54480
1265.13828	0.54418
1263.20972	0.54362
1261.28115	0.54306
1259.35259	0.54256
1257.42402	0.54212
1255.49546	0.54169
1253.56689	0.54134
1251.63833	0.54119
1249.70977	0.54123
1247.78120	0.54116
1245.85264	0.54086
1243.92407	0.54030
1241.99551	0.53946
1240.06694	0.53836
1238.13838	0.53708
1236.20981	0.53572
1234.28125	0.53434
1232.35269	0.53292
1230.42412	0.53139
1228.49556	0.52986
1226.56699	0.52849
1224.63843	0.52723
1222.70986	0.52593
1220.78130	0.52467
1218.85273	0.52354
1216.92417	0.52252
1214.99561	0.52162
1213.06704	0.52083
1211.13848	0.52007
1209.20991	0.51933
1207.28135	0.51861
1205.35278	0.51789
1203.42422	0.51715
1201.49565	0.51639
1199.56709	0.51563
1197.63853	0.51491
1195.70996	0.51423
1193.78140	0.51367
1191.85283	0.51328
1189.92427	0.51294
1187.99570	0.51268
1186.06714	0.51268
1184.13857	0.51279
1182.21001	0.51290
1180.28145	0.51333
1178.35288	0.51427
1176.42432	0.51553
1174.49575	0.51668
1172.56719	0.51742
1170.63862	0.51781
1168.71006	0.51811
1166.78149	0.51838
1164.85293	0.51854
1162.92437	0.51867
1160.99580	0.51876
1159.06724	0.51862
1157.13867	0.51812
1155.21011	0.51721
1153.28154	0.51586
1151.35298	0.51415
1149.42441	0.51210
1147.49585	0.50963
1145.56729	0.50686
1143.63872	0.50417
1141.71016	0.50174
1139.78159	0.49969
1137.85303	0.49806
1135.92446	0.49669
1133.99590	0.49548
1132.06733	0.49442
1130.13877	0.49347
1128.21021	0.49249
1126.28164	0.49139
1124.35308	0.49033
1122.42451	0.48972
1120.49595	0.48966
1118.56738	0.48984
1116.63882	0.49014
1114.71025	0.49062
1112.78169	0.49126
1110.85312	0.49197
1108.92456	0.49275
1106.99600	0.49360
1105.06743	0.49467
1103.13887	0.49599
1101.21030	0.49749
1099.28174	0.49918
1097.35317	0.50119
1095.42461	0.50369
1093.49604	0.50687
1091.56748	0.51106
1089.63892	0.51658
1087.71035	0.52337
1085.78179	0.53096
1083.85322	0.53861
1081.92466	0.54554
1079.99609	0.55083
1078.06753	0.55367
1076.13896	0.55379
1074.21040	0.55133
1072.28184	0.54675
1070.35327	0.54066
1068.42471	0.53389
1066.49614	0.52709
1064.56758	0.52053
1062.63901	0.51472
1060.71045	0.50996
1058.78188	0.50584
1056.85332	0.50214
1054.92476	0.49887
1052.99619	0.49588
1051.06763	0.49332
1049.13906	0.49145
1047.21050	0.49029
1045.28193	0.48961
1043.35337	0.48900
1041.42480	0.48841
1039.49624	0.48813
1037.56768	0.48803
1035.63911	0.48783
1033.71055	0.48753
1031.78198	0.48709
1029.85342	0.48630
1027.92485	0.48521
1025.99629	0.48417
1024.06772	0.48359
1022.13916	0.48350
1020.21060	0.48377
1018.28203	0.48426
1016.35347	0.48473
1014.42490	0.48481
1012.49634	0.48462
1010.56777	0.48473
1008.63921	0.48545
1006.71064	0.48660
1004.78208	0.48802
1002.85352	0.48983
1000.92495	0.49232
998.99639	0.49551
997.06782	0.49922
995.13926	0.50330
993.21069	0.50742
991.28213	0.51077
989.35356	0.51284
987.42500	0.51393
985.49644	0.51439
983.56787	0.51446
981.63931	0.51482
979.71074	0.51590
977.78218	0.51760
975.85361	0.51973
973.92505	0.52218
971.99648	0.52500
970.06792	0.52823
968.13936	0.53191
966.21079	0.53618
964.28223	0.54081
962.35366	0.54543
960.42510	0.55003
958.49653	0.55485
956.56797	0.56012
954.63940	0.56603
952.71084	0.57246
950.78228	0.57883
948.85371	0.58483
946.92515	0.59083
944.99658	0.59711
943.06802	0.60323
941.13945	0.60917
939.21089	0.61545
937.28232	0.62161
935.35376	0.62702
933.42520	0.63217
931.49663	0.63744
929.56807	0.64275
927.63950	0.64842
925.71094	0.65451
923.78237	0.66065
921.85381	0.66704
919.92524	0.67367
917.99668	0.68018
916.06812	0.68701
914.13955	0.69447
912.21099	0.70223
910.28242	0.71024
908.35386	0.71833
906.42529	0.72620
904.49673	0.73443
902.56816	0.74306
900.63960	0.75124
898.71104	0.76012
896.78247	0.77103
894.85391	0.78232
892.92534	0.79246
890.99678	0.80209
889.06821	0.81180
887.13965	0.82260
885.21108	0.83522
883.28252	0.84753
881.35396	0.85749
879.42539	0.86684
877.49683	0.87779
875.56826	0.88977
873.63970	0.90163
871.71113	0.91306
869.78257	0.92401
867.85400	0.93460
865.92544	0.94486
863.99687	0.95556
862.06831	0.96749
860.13975	0.97977
858.21118	0.99235
856.28262	1.00593
854.35405	1.01878
852.42549	1.02994
850.49692	1.04158
848.56836	1.05299
846.63979	1.06163
844.71123	1.06898
842.78267	1.07809
840.85410	1.08965
838.92554	1.10190
836.99697	1.11380
835.06841	1.12571
833.13984	1.13760
831.21128	1.14763
829.28271	1.15498
827.35415	1.16626
825.42559	1.18333
823.49702	1.19663
821.56846	1.20502
819.63989	1.21440
817.71133	1.22333
815.78276	1.23573
813.85420	1.25596
811.92563	1.27265
809.99707	1.27904
808.06851	1.28399
806.13994	1.29084
804.21138	1.29576
802.28281	1.31104
800.35425	1.35097
798.42568	1.39181
796.49712	1.38766
794.56855	1.36807
792.63999	1.39164
790.71143	1.44268
788.78286	1.48833
786.85430	1.52106
784.92573	1.47893
782.99717	1.39946
781.06860	1.39473
779.14004	1.45461
777.21147	1.46988
775.28291	1.42373
773.35435	1.36561
771.42578	1.34002
769.49722	1.39936
767.56865	1.54585
765.64009	1.70635
763.71152	1.74571
761.78296	1.55323
759.85439	1.39181
757.92583	1.39068
755.99727	1.46261
754.06870	1.41956
752.14014	1.30719
750.21157	1.23405
748.28301	1.21277
746.35444	1.28080
744.42588	1.48045
742.49731	1.81031
740.56875	4.44341
738.64019	4.43184
736.71162	4.42027
734.78306	1.80307
732.85449	4.39713
730.92593	4.38556
728.99736	1.16239
727.06880	0.75464
725.14023	0.57476
723.21167	0.56460
721.28311	0.79068
719.35454	0.41767
717.42598	0.10519
715.49741	0.02117
713.56885	0.04797
711.64028	0.48248
709.71172	4.25827
707.78315	4.24670
705.85459	0.81463
703.92603	0.94490
701.99746	1.00917
700.06890	0.80773
698.14033	0.61929
696.21177	0.51374
694.28320	0.54879
692.35464	0.52119
690.42607	0.39687
688.49751	0.31721
686.56895	0.34006
684.64038	0.60455
682.71182	4.09627
680.78325	1.04376
678.85469	0.69453
676.92612	0.55095
674.99756	0.30934
673.06899	0.29253
671.14043	0.41445
669.21187	0.55786
667.28330	0.73410
665.35474	0.70561
663.42617	0.54323
661.49761	0.45253
659.56904	0.45509
657.64048	0.44697
655.71191	0.36736
653.78335	0.33011
651.85479	0.41506
649.92622	0.50012
647.99766	0.41742
646.06909	0.37972
644.14053	0.47037
642.21196	0.61512
640.28340	0.59457
638.35483	0.51915
636.42627	0.42605
634.49771	0.32890
632.56914	0.37841
630.64058	0.48531
628.71201	0.42011
626.78345	0.41949
624.85488	0.46339
622.92632	0.33666
620.99775	0.21835
619.06919	0.18900
617.14062	0.20076
615.21206	0.27303
613.28350	0.43205
611.35493	0.43958
609.42637	0.36548
607.49780	0.47127
605.56924	0.62337
603.64067	0.68930
601.71211	0.76015
599.78354	0.56582
597.85498	0.32112
595.92642	0.27950
593.99785	0.35350
592.06929	0.39958
590.14072	0.40445
588.21216	0.49428
586.28359	0.47571
584.35503	0.34650
582.42646	0.28176
580.49790	0.31390
578.56934	0.40236
576.64077	0.40068
574.71221	0.31008
572.78364	0.28872
570.85508	0.35477
568.92651	0.39560
566.99795	0.34436
565.06938	0.30171
563.14082	0.29615
561.21226	0.30936
559.28369	0.36058
557.35513	0.39965
555.42656	0.34854
553.49800	0.33589
551.56943	0.39605
549.64087	0.44473
547.71230	0.46496
545.78374	0.53829
543.85518	0.63034
541.92661	0.57462
539.99805	0.38474
538.06948	0.26390
536.14092	0.29895
534.21235	0.51096
532.28379	0.75537
530.35522	0.56321
528.42666	0.47390
526.49810	0.52549
524.56953	0.58883
522.64097	0.45201
520.71240	0.36633
518.78384	0.35381
516.85527	0.32722
514.92671	0.26670
512.99814	0.22090
511.06958	0.25525
509.14102	0.38357
507.21245	0.51808
505.28389	0.49051
503.35532	0.46779
501.42676	0.41589
499.49819	0.29743
