3997.91411	0.06930
3995.98555	0.06944
3994.05698	0.06961
3992.12842	0.06948
3990.19985	0.06932
3988.27129	0.06936
3986.34272	0.06968
3984.41416	0.07046
3982.48560	0.07126
3980.55703	0.07155
3978.62847	0.07154
3976.69990	0.07176
3974.77134	0.07225
3972.84277	0.07280
3970.91421	0.07307
3968.98564	0.07274
3967.05708	0.07215
3965.12852	0.07210
3963.19995	0.07292
3961.27139	0.07395
3959.34282	0.07439
3957.41426	0.07428
3955.48569	0.07398
3953.55713	0.07416
3951.62856	0.07535
3949.70000	0.07681
3947.77144	0.07723
3945.84287	0.07670
3943.91431	0.07696
3941.98574	0.07761
3940.05718	0.07650
3938.12861	0.07485
3936.20005	0.07434
3934.27148	0.07488
3932.34292	0.07664
3930.41436	0.07849
3928.48579	0.07817
3926.55723	0.07691
3924.62866	0.07708
3922.70010	0.07766
3920.77153	0.07754
3918.84297	0.07802
3916.91440	0.07853
3914.98584	0.07708
3913.05728	0.07449
3911.12871	0.07275
3909.20015	0.07276
3907.27158	0.07509
3905.34302	0.07971
3903.41445	0.08443
3901.48589	0.08619
3899.55732	0.08528
3897.62876	0.08242
3895.70020	0.07890
3893.77163	0.07770
3891.84307	0.07943
3889.91450	0.08038
3887.98594	0.07887
3886.05737	0.07895
3884.12881	0.08099
3882.20024	0.08235
3880.27168	0.08294
3878.34312	0.08128
3876.41455	0.07904
3874.48599	0.08016
3872.55742	0.08337
3870.62886	0.08603
3868.70029	0.08713
3866.77173	0.08605
3864.84316	0.08599
3862.91460	0.08681
3860.98604	0.08477
3859.05747	0.08234
3857.12891	0.08332
3855.20034	0.08812
3853.27178	0.09556
3851.34321	0.09721
3849.41465	0.09069
3847.48608	0.08529
3845.55752	0.08390
3843.62896	0.08654
3841.70039	0.09140
3839.77183	0.09637
3837.84326	0.09985
3835.91470	0.09920
3833.98613	0.09593
3832.05757	0.09320
3830.12900	0.09137
3828.20044	0.09081
3826.27187	0.09206
3824.34331	0.09404
3822.41475	0.09758
3820.48618	0.10388
3818.55762	0.10619
3816.62905	0.10397
3814.70049	0.10154
3812.77192	0.09790
3810.84336	0.09527
3808.91479	0.09614
3806.98623	0.10031
3805.05767	0.10430
3803.12910	0.10703
3801.20054	0.11129
3799.27197	0.11321
3797.34341	0.11120
3795.41484	0.10928
3793.48628	0.10699
3791.55771	0.10497
3789.62915	0.10458
3787.70059	0.10583
3785.77202	0.10870
3783.84346	0.11192
3781.91489	0.11385
3779.98633	0.11583
3778.05776	0.11790
3776.12920	0.11788
3774.20063	0.11762
3772.27207	0.11968
3770.34351	0.12420
3768.41494	0.12870
3766.48638	0.13089
3764.55781	0.13199
3762.62925	0.13298
3760.70068	0.13578
3758.77212	0.14095
3756.84355	0.14437
3754.91499	0.14578
3752.98643	0.15042
3751.05786	0.16072
3749.12930	0.17034
3747.20073	0.17207
3745.27217	0.17294
3743.34360	0.17638
3741.41504	0.17897
3739.48647	0.18239
3737.55791	0.19004
3735.62935	0.20231
3733.70078	0.21349
3731.77222	0.21651
3729.84365	0.21679
3727.91509	0.22008
3725.98652	0.22691
3724.05796	0.23425
3722.12939	0.23915
3720.20083	0.24146
3718.27227	0.24188
3716.34370	0.24317
3714.41514	0.24843
3712.48657	0.26117
3710.55801	0.28243
3708.62944	0.30003
3706.70088	0.30831
3704.77231	0.31656
3702.84375	0.32933
3700.91519	0.34644
3698.98662	0.36411
3697.05806	0.38058
3695.12949	0.39842
3693.20093	0.41863
3691.27236	0.44276
3689.34380	0.47285
3687.41523	0.50362
3685.48667	0.52758
3683.55811	0.55003
3681.62954	0.57700
3679.70098	0.60942
3677.77241	0.64541
3675.84385	0.68909
3673.91528	0.74372
3671.98672	0.78499
3670.05815	0.82304
3668.12959	0.87452
3666.20103	0.91767
3664.27246	0.95382
3662.34390	0.99583
3660.41533	1.04325
3658.48677	1.09084
3656.55820	1.14182
3654.62964	1.19838
3652.70107	1.24643
3650.77251	1.29128
3648.84395	1.35434
3646.91538	1.42386
3644.98682	1.46792
3643.05825	1.50217
3641.12969	1.54081
3639.20112	1.58581
3637.27256	1.63234
3635.34399	1.67802
3633.41543	1.72417
3631.48687	1.76833
3629.55830	1.81389
3627.62974	1.87230
3625.70117	1.92320
3623.77261	1.95462
3621.84404	1.98441
3619.91548	2.02076
3617.98691	2.06707
3616.05835	2.11058
3614.12979	2.14515
3612.20122	2.18261
3610.27266	2.22242
3608.34409	2.26400
3606.41553	2.30775
3604.48696	2.34670
3602.55840	2.38209
3600.62983	2.42177
3598.70127	2.46431
3596.77271	2.50510
3594.84414	2.54593
3592.91558	2.58593
3590.98701	2.62225
3589.05845	2.65800
3587.12988	2.70287
3585.20132	2.75094
3583.27275	2.78982
3581.34419	2.82566
3579.41562	2.86418
3577.48706	2.90613
3575.55850	2.95082
3573.62993	2.99537
3571.70137	3.03512
3569.77280	3.07326
3567.84424	3.11841
3565.91567	3.17475
3563.98711	3.22377
3562.05854	3.26058
3560.12998	3.29966
3558.20142	3.34224
3556.27285	3.38506
3554.34429	3.42849
3552.41572	3.47517
3550.48716	3.52276
3548.55859	3.56817
3546.63003	3.61381
3544.70146	3.66222
3542.77290	3.70998
3540.84434	3.75652
3538.91577	3.80517
3536.98721	3.85373
3535.05864	3.90022
3533.13008	3.94469
3531.20151	3.99192
3529.27295	4.04351
3527.34438	4.09506
3525.41582	4.14436
3523.48726	4.19216
3521.55869	4.23819
3519.63013	4.28135
3517.70156	4.32647
3515.77300	4.37445
3513.84443	4.42209
3511.91587	4.47017
3509.98730	4.51990
3508.05874	4.56982
3506.13018	4.61776
3504.20161	4.66504
3502.27305	4.71501
3500.34448	4.76655
3498.41592	4.81636
3496.48735	4.86390
3494.55879	4.90731
3492.63022	4.95004
3490.70166	4.99986
3488.77310	5.05424
3486.84453	5.10308
3484.91597	5.14326
3482.98740	5.18558
3481.05884	5.24127
3479.13027	5.30116
3477.20171	5.35517
3475.27314	5.40666
3473.34458	5.45153
3471.41602	5.48706
3469.48745	5.52202
3467.55889	5.56371
3465.63032	5.61036
3463.70176	5.66332
3461.77319	5.72693
3459.84463	5.79119
3457.91606	5.84563
3455.98750	5.89103
3454.05894	5.92704
3452.13037	5.96673
3450.20181	6.02115
3448.27324	6.08206
3446.34468	6.14375
3444.41611	6.19433
3442.48755	6.22948
3440.55898	6.25604
3438.63042	6.27422
3436.70186	6.29131
3434.77329	6.33901
3432.84473	6.42160
3430.91616	6.49781
3428.98760	6.55145
3427.05903	6.59444
3425.13047	6.64733
3423.20190	6.71018
3421.27334	6.76790
3419.34478	6.81084
3417.41621	6.84153
3415.48765	6.87455
3413.55908	6.92199
3411.63052	6.98597
3409.70195	7.04522
3407.77339	7.10751
3405.84482	7.16534
3403.91626	7.19873
3401.98770	7.23521
3400.05913	7.29980
3398.13057	7.36576
3396.20200	7.37477
3394.27344	7.34645
3392.34487	7.35720
3390.41631	7.43362
3388.48774	7.52893
3386.55918	7.61471
3384.63062	7.66655
3382.70205	7.66129
3380.77349	7.63738
3378.84492	7.63384
3376.91636	7.66950
3374.98779	7.72355
3373.05923	7.75294
3371.13066	7.73820
3369.20210	7.73953
3367.27354	7.79812
3365.34497	7.87484
3363.41641	7.92202
3361.48784	7.94529
3359.55928	7.97234
3357.63071	7.99087
3355.70215	7.99586
3353.77358	7.99503
3351.84502	8.03656
3349.91646	8.10105
3347.98789	8.10239
3346.05933	8.00974
3344.13076	7.88878
3342.20220	7.89008
3340.27363	8.03424
3338.34507	8.13989
3336.41650	8.12021
3334.48794	8.10786
3332.55937	8.12859
3330.63081	8.12090
3328.70225	8.08503
3326.77368	8.08759
3324.84512	8.12069
3322.91655	8.10239
3320.98799	8.07482
3319.05942	8.08164
3317.13086	8.10946
3315.20229	8.08723
3313.27373	8.02097
3311.34517	8.04550
3309.41660	8.15280
3307.48804	8.22150
3305.55947	8.24771
3303.63091	8.23645
3301.70234	8.17689
3299.77378	8.15838
3297.84521	8.17899
3295.91665	8.19370
3293.98809	8.20926
3292.05952	8.23901
3290.13096	8.22966
3288.20239	8.14054
3286.27383	8.13944
3284.34526	8.29577
3282.41670	8.40804
3280.48813	8.35828
3278.55957	8.29933
3276.63101	8.29675
3274.70244	8.31392
3272.77388	8.32212
3270.84531	8.30768
3268.91675	8.29884
3266.98818	8.30474
3265.05962	8.33972
3263.13105	8.41115
3261.20249	8.43414
3259.27393	8.33977
3257.34536	8.25287
3255.41680	8.25892
3253.48823	8.30068
3251.55967	8.29258
3249.63110	8.17960
3247.70254	8.06959
3245.77397	8.05925
3243.84541	8.08340
3241.91685	8.09889
3239.98828	8.15539
3238.05972	8.20445
3236.13115	8.15280
3234.20259	8.09980
3232.27402	8.14830
3230.34546	8.18637
3228.41689	8.16625
3226.48833	8.19438
3224.55977	8.23027
3222.63120	8.21747
3220.70264	8.18846
3218.77407	8.14986
3216.84551	8.09400
3214.91694	8.03985
3212.98838	7.98268
3211.05981	7.89807
3209.13125	7.85144
3207.20269	7.85715
3205.27412	7.83461
3203.34556	7.76660
3201.41699	7.69568
3199.48843	7.66365
3197.55986	7.65741
3195.63130	7.63825
3193.70273	7.61025
3191.77417	7.56426
3189.84561	7.49245
3187.91704	7.41875
3185.98848	7.35870
3184.05991	7.31029
3182.13135	7.25804
3180.20278	7.22391
3178.27422	7.22558
3176.34565	7.20692
3174.41709	7.13607
3172.48853	7.04121
3170.55996	6.94836
3168.63140	6.87836
3166.70283	6.81331
3164.77427	6.73866
3162.84570	6.67898
3160.91714	6.62513
3158.98857	6.56007
3157.06001	6.49746
3155.13145	6.43675
3153.20288	6.36523
3151.27432	6.29743
3149.34575	6.24274
3147.41719	6.18084
3145.48862	6.10773
3143.56006	6.04013
3141.63149	5.97893
3139.70293	5.90611
3137.77437	5.82527
3135.84580	5.75832
3133.91724	5.70094
3131.98867	5.63289
3130.06011	5.55471
3128.13154	5.47937
3126.20298	5.40740
3124.27441	5.33728
3122.34585	5.27419
3120.41729	5.21370
3118.48872	5.14432
3116.56016	5.07042
3114.63159	5.00192
3112.70303	4.93739
3110.77446	4.87078
3108.84590	4.79945
3106.91733	4.72755
3104.98877	4.65882
3103.06021	4.59176
3101.13164	4.52506
3099.20308	4.46004
3097.27451	4.39731
3095.34595	4.33470
3093.41738	4.26983
3091.48882	4.20497
3089.56025	4.14468
3087.63169	4.08795
3085.70312	4.03008
3083.77456	3.96813
3081.84600	3.90417
3079.91743	3.84221
3077.98887	3.78382
3076.06030	3.72789
3074.13174	3.67067
3072.20317	3.61138
3070.27461	3.55365
3068.34604	3.49821
3066.41748	3.44358
3064.48892	3.38993
3062.56035	3.33674
3060.63179	3.28363
3058.70322	3.23063
3056.77466	3.17705
3054.84609	3.12401
3052.91753	3.07375
3050.98896	3.02529
3049.06040	2.97537
3047.13184	2.92569
3045.20327	2.87941
3043.27471	2.83356
3041.34614	2.78523
3039.41758	2.73619
3037.48901	2.68881
3035.56045	2.64386
3033.63188	2.60020
3031.70332	2.55671
3029.77476	2.51363
3027.84619	2.47082
3025.91763	2.42835
3023.98906	2.38677
3022.06050	2.34570
3020.13193	2.30460
3018.20337	2.26410
3016.27480	2.22464
3014.34624	2.18567
3012.41768	2.14699
3010.48911	2.10891
3008.56055	2.07214
3006.63198	2.03682
3004.70342	2.00189
3002.77485	1.96725
3000.84629	1.93366
2998.91772	1.90076
2996.98916	1.86842
2995.06060	1.83720
2993.13203	1.80689
2991.20347	1.77723
2989.27490	1.74849
2987.34634	1.72046
2985.41777	1.69281
2983.48921	1.66529
2981.56064	1.63802
2979.63208	1.61172
2977.70352	1.58685
2975.77495	1.56307
2973.84639	1.53958
2971.91782	1.51596
2969.98926	1.49231
2968.06069	1.46907
2966.13213	1.44655
2964.20356	1.42425
2962.27500	1.40131
2960.34644	1.37766
2958.41787	1.35386
2956.48931	1.33059
2954.56074	1.30801
2952.63218	1.28533
2950.70361	1.26209
2948.77505	1.23913
2946.84648	1.21742
2944.91792	1.19681
2942.98936	1.17677
2941.06079	1.15724
2939.13223	1.13787
2937.20366	1.11830
2935.27510	1.09882
2933.34653	1.07986
2931.41797	1.06104
2929.48940	1.04178
2927.56084	1.02251
2925.63228	1.00361
2923.70371	0.98509
2921.77515	0.96722
2919.84658	0.95011
2917.91802	0.93343
2915.98945	0.91660
2914.06089	0.89969
2912.13232	0.88338
2910.20376	0.86758
2908.27520	0.85194
2906.34663	0.83680
2904.41807	0.82216
2902.48950	0.80770
2900.56094	0.79345
2898.63237	0.77960
2896.70381	0.76632
2894.77524	0.75347
2892.84668	0.74081
2890.91812	0.72859
2888.98955	0.71708
2887.06099	0.70617
2885.13242	0.69590
2883.20386	0.68632
2881.27529	0.67702
2879.34673	0.66771
2877.41816	0.65835
2875.48960	0.64889
2873.56104	0.63915
2871.63247	0.62888
2869.70391	0.61794
2867.77534	0.60636
2865.84678	0.59434
2863.91821	0.58220
2861.98965	0.57032
2860.06108	0.55918
2858.13252	0.54903
2856.20396	0.53953
2854.27539	0.53041
2852.34683	0.52154
2850.41826	0.51275
2848.48970	0.50408
2846.56113	0.49564
2844.63257	0.48768
2842.70400	0.48048
2840.77544	0.47388
2838.84687	0.46746
2836.91831	0.46104
2834.98975	0.45484
2833.06118	0.44896
2831.13262	0.44314
2829.20405	0.43714
2827.27549	0.43105
2825.34692	0.42496
2823.41836	0.41883
2821.48979	0.41272
2819.56123	0.40683
2817.63267	0.40122
2815.70410	0.39575
2813.77554	0.39024
2811.84697	0.38466
2809.91841	0.37909
2807.98984	0.37358
2806.06128	0.36818
2804.13271	0.36305
2802.20415	0.35813
2800.27559	0.35329
2798.34702	0.34844
2796.41846	0.34354
2794.48989	0.33879
2792.56133	0.33421
2790.63276	0.32967
2788.70420	0.32531
2786.77563	0.32114
2784.84707	0.31692
2782.91851	0.31252
2780.98994	0.30809
2779.06138	0.30396
2777.13281	0.30007
2775.20425	0.29618
2773.27568	0.29238
2771.34712	0.28867
2769.41855	0.28493
2767.48999	0.28114
2765.56143	0.27740
2763.63286	0.27387
2761.70430	0.27064
2759.77573	0.26760
2757.84717	0.26440
2755.91860	0.26096
2753.99004	0.25774
2752.06147	0.25482
2750.13291	0.25181
2748.20435	0.24870
2746.27578	0.24565
2744.34722	0.24290
2742.41865	0.24049
2740.49009	0.23806
2738.56152	0.23543
2736.63296	0.23261
2734.70439	0.22972
2732.77583	0.22708
2730.84727	0.22485
2728.91870	0.22270
2726.99014	0.22039
2725.06157	0.21818
2723.13301	0.21610
2721.20444	0.21396
2719.27588	0.21180
2717.34731	0.20967
2715.41875	0.20769
2713.49019	0.20592
2711.56162	0.20417
2709.63306	0.20236
2707.70449	0.20064
2705.77593	0.19892
2703.84736	0.19705
2701.91880	0.19527
2699.99023	0.19379
2698.06167	0.19244
2696.13311	0.19101
2694.20454	0.18949
2692.27598	0.18799
2690.34741	0.18661
2688.41885	0.18543
2686.49028	0.18426
2684.56172	0.18301
2682.63315	0.18171
2680.70459	0.18044
2678.77603	0.17932
2676.84746	0.17833
2674.91890	0.17726
2672.99033	0.17597
2671.06177	0.17474
2669.13320	0.17375
2667.20464	0.17287
2665.27607	0.17196
2663.34751	0.17095
2661.41895	0.16985
2659.49038	0.16881
2657.56182	0.16794
2655.63325	0.16735
2653.70469	0.16688
2651.77612	0.16622
2649.84756	0.16539
2647.91899	0.16461
2645.99043	0.16402
2644.06187	0.16347
2642.13330	0.16279
2640.20474	0.16216
2638.27617	0.16177
2636.34761	0.16140
2634.41904	0.16077
2632.49048	0.16003
2630.56191	0.15940
2628.63335	0.15898
2626.70479	0.15861
2624.77622	0.15813
2622.84766	0.15782
2620.91909	0.15777
2618.99053	0.15760
2617.06196	0.15718
2615.13340	0.15666
2613.20483	0.15628
2611.27627	0.15611
2609.34771	0.15601
2607.41914	0.15586
2605.49058	0.15572
2603.56201	0.15557
2601.63345	0.15536
2599.70488	0.15507
2597.77632	0.15489
2595.84775	0.15504
2593.91919	0.15537
2591.99062	0.15544
2590.06206	0.15520
2588.13350	0.15508
2586.20493	0.15528
2584.27637	0.15560
2582.34780	0.15588
2580.41924	0.15603
2578.49067	0.15623
2576.56211	0.15663
2574.63354	0.15708
2572.70498	0.15741
2570.77642	0.15755
2568.84785	0.15761
2566.91929	0.15774
2564.99072	0.15804
2563.06216	0.15844
2561.13359	0.15879
2559.20503	0.15910
2557.27646	0.15943
2555.34790	0.15984
2553.41934	0.16039
2551.49077	0.16086
2549.56221	0.16117
2547.63364	0.16157
2545.70508	0.16216
2543.77651	0.16280
2541.84795	0.16341
2539.91938	0.16393
2537.99082	0.16437
2536.06226	0.16490
2534.13369	0.16552
2532.20513	0.16611
2530.27656	0.16666
2528.34800	0.16718
2526.41943	0.16774
2524.49087	0.16834
2522.56230	0.16898
2520.63374	0.16977
2518.70518	0.17063
2516.77661	0.17142
2514.84805	0.17218
2512.91948	0.17294
2510.99092	0.17367
2509.06235	0.17436
2507.13379	0.17504
2505.20522	0.17571
2503.27666	0.17649
2501.34810	0.17736
2499.41953	0.17815
2497.49097	0.17888
2495.56240	0.17969
2493.63384	0.18054
2491.70527	0.18129
2489.77671	0.18195
2487.84814	0.18262
2485.91958	0.18335
2483.99102	0.18417
2482.06245	0.18506
2480.13389	0.18591
2478.20532	0.18671
2476.27676	0.18747
2474.34819	0.18825
2472.41963	0.18914
2470.49106	0.19003
2468.56250	0.19085
2466.63394	0.19166
2464.70537	0.19250
2462.77681	0.19333
2460.84824	0.19416
2458.91968	0.19509
2456.99111	0.19606
2455.06255	0.19693
2453.13398	0.19776
2451.20542	0.19859
2449.27686	0.19948
2447.34829	0.20051
2445.41973	0.20156
2443.49116	0.20252
2441.56260	0.20350
2439.63403	0.20451
2437.70547	0.20543
2435.77690	0.20625
2433.84834	0.20712
2431.91978	0.20807
2429.99121	0.20905
2428.06265	0.21005
2426.13408	0.21109
2424.20552	0.21213
2422.27695	0.21330
2420.34839	0.21455
2418.41982	0.21559
2416.49126	0.21645
2414.56270	0.21751
2412.63413	0.21870
2410.70557	0.21978
2408.77700	0.22078
2406.84844	0.22183
2404.91987	0.22293
2402.99131	0.22405
2401.06274	0.22520
2399.13418	0.22640
2397.20562	0.22770
2395.27705	0.22899
2393.34849	0.23018
2391.41992	0.23148
2389.49136	0.23340
2387.56279	0.23663
2385.63423	0.24212
2383.70566	0.25066
2381.77710	0.26237
2379.84854	0.27672
2377.91997	0.29342
2375.99141	0.31313
2374.06284	0.33703
2372.13428	0.36487
2370.20571	0.39492
2368.27715	0.42605
2366.34858	0.45666
2364.42002	0.48276
2362.49146	0.50163
2360.56289	0.51356
2358.63433	0.51632
2356.70576	0.50380
2354.77720	0.47647
2352.84863	0.44228
2350.92007	0.40954
2348.99150	0.39035
2347.06294	0.39052
2345.13437	0.41063
2343.20581	0.44020
2341.27725	0.45603
2339.34868	0.45630
2337.42012	0.45298
2335.49155	0.44995
2333.56299	0.44554
2331.63442	0.44088
2329.70586	0.43788
2327.77729	0.43446
2325.84873	0.42703
2323.92017	0.41626
2321.99160	0.40490
2320.06304	0.39415
2318.13447	0.38394
2316.20591	0.37486
2314.27734	0.36796
2312.34878	0.36342
2310.42021	0.35979
2308.49165	0.35496
2306.56309	0.34862
2304.63452	0.34255
2302.70596	0.33866
2300.77739	0.33670
2298.84883	0.33518
2296.92026	0.33366
2294.99170	0.33209
2293.06313	0.33034
2291.13457	0.32869
2289.20601	0.32731
2287.27744	0.32604
2285.34888	0.32492
2283.42031	0.32467
2281.49175	0.32603
2279.56318	0.32860
2277.63462	0.33140
2275.70605	0.33405
2273.77749	0.33650
2271.84893	0.33860
2269.92036	0.34042
2267.99180	0.34217
2266.06323	0.34403
2264.13467	0.34590
2262.20610	0.34758
2260.27754	0.34906
2258.34897	0.35048
2256.42041	0.35185
2254.49185	0.35324
2252.56328	0.35475
2250.63472	0.35633
2248.70615	0.35796
2246.77759	0.35977
2244.84902	0.36172
2242.92046	0.36358
2240.99189	0.36543
2239.06333	0.36747
2237.13477	0.36959
2235.20620	0.37166
2233.27764	0.37377
2231.34907	0.37589
2229.42051	0.37791
2227.49194	0.37988
2225.56338	0.38198
2223.63481	0.38427
2221.70625	0.38659
2219.77769	0.38885
2217.84912	0.39092
2215.92056	0.39285
2213.99199	0.39482
2212.06343	0.39685
2210.13486	0.39889
2208.20630	0.40104
2206.27773	0.40324
2204.34917	0.40534
2202.42061	0.40732
2200.49204	0.40925
2198.56348	0.41121
2196.63491	0.41312
2194.70635	0.41497
2192.77778	0.41685
2190.84922	0.41879
2188.92065	0.42072
2186.99209	0.42260
2185.06353	0.42431
2183.13496	0.42587
2181.20640	0.42750
2179.27783	0.42919
2177.34927	0.43084
2175.42070	0.43244
2173.49214	0.43400
2171.56357	0.43550
2169.63501	0.43688
2167.70645	0.43812
2165.77788	0.43934
2163.84932	0.44056
2161.92075	0.44178
2159.99219	0.44301
2158.06362	0.44410
2156.13506	0.44505
2154.20649	0.44584
2152.27793	0.44654
2150.34937	0.44732
2148.42080	0.44808
2146.49224	0.44865
2144.56367	0.44909
2142.63511	0.44956
2140.70654	0.44998
2138.77798	0.45028
2136.84941	0.45051
2134.92085	0.45057
2132.99229	0.45042
2131.06372	0.45035
2129.13516	0.45047
2127.20659	0.45047
2125.27803	0.45026
2123.34946	0.44994
2121.42090	0.44945
2119.49233	0.44885
2117.56377	0.44827
2115.63521	0.44761
2113.70664	0.44692
2111.77808	0.44619
2109.84951	0.44529
2107.92095	0.44426
2105.99238	0.44318
2104.06382	0.44205
2102.13525	0.44083
2100.20669	0.43955
2098.27812	0.43817
2096.34956	0.43667
2094.42100	0.43525
2092.49243	0.43394
2090.56387	0.43256
2088.63530	0.43097
2086.70674	0.42921
2084.77817	0.42737
2082.84961	0.42548
2080.92104	0.42357
2078.99248	0.42158
2077.06392	0.41948
2075.13535	0.41736
2073.20679	0.41531
2071.27822	0.41325
2069.34966	0.41111
2067.42109	0.40895
2065.49253	0.40685
2063.56396	0.40460
2061.63540	0.40223
2059.70684	0.39981
2057.77827	0.39720
2055.84971	0.39454
2053.92114	0.39204
2051.99258	0.38961
2050.06401	0.38713
2048.13545	0.38468
2046.20688	0.38219
2044.27832	0.37961
2042.34976	0.37702
2040.42119	0.37443
2038.49263	0.37174
2036.56406	0.36895
2034.63550	0.36609
2032.70693	0.36329
2030.77837	0.36067
2028.84980	0.35814
2026.92124	0.35556
2024.99268	0.35282
2023.06411	0.35001
2021.13555	0.34732
2019.20698	0.34488
2017.27842	0.34244
2015.34985	0.33962
2013.42129	0.33655
2011.49272	0.33366
2009.56416	0.33107
2007.63560	0.32856
2005.70703	0.32599
2003.77847	0.32335
2001.84990	0.32066
1999.92134	0.31800
1997.99277	0.31545
1996.06421	0.31303
1994.13564	0.31091
1992.20708	0.30889
1990.27852	0.30637
1988.34995	0.30354
1986.42139	0.30079
1984.49282	0.29822
1982.56426	0.29586
1980.63569	0.29357
1978.70713	0.29128
1976.77856	0.28899
1974.85000	0.28671
1972.92144	0.28444
1970.99287	0.28237
1969.06431	0.28081
1967.13574	0.27940
1965.20718	0.27741
1963.27861	0.27508
1961.35005	0.27297
1959.42148	0.27104
1957.49292	0.26920
1955.56436	0.26742
1953.63579	0.26555
1951.70723	0.26366
1949.77866	0.26204
1947.85010	0.26079
1945.92153	0.25980
1943.99297	0.25904
1942.06440	0.25793
1940.13584	0.25578
1938.20728	0.25344
1936.27871	0.25178
1934.35015	0.25052
1932.42158	0.24927
1930.49302	0.24798
1928.56445	0.24687
1926.63589	0.24600
1924.70732	0.24552
1922.77876	0.24516
1920.85020	0.24433
1918.92163	0.24337
1916.99307	0.24227
1915.06450	0.24064
1913.13594	0.23927
1911.20737	0.23877
1909.27881	0.23859
1907.35024	0.23793
1905.42168	0.23687
1903.49312	0.23600
1901.56455	0.23539
1899.63599	0.23496
1897.70742	0.23483
1895.77886	0.23484
1893.85029	0.23453
1891.92173	0.23416
1889.99316	0.23425
1888.06460	0.23396
1886.13604	0.23312
1884.20747	0.23256
1882.27891	0.23223
1880.35034	0.23195
1878.42178	0.23181
1876.49321	0.23178
1874.56465	0.23175
1872.63608	0.23209
1870.70752	0.23345
1868.77896	0.23561
1866.85039	0.23606
1864.92183	0.23456
1862.99326	0.23347
1861.06470	0.23335
1859.13613	0.23359
1857.20757	0.23372
1855.27900	0.23396
1853.35044	0.23442
1851.42187	0.23509
1849.49331	0.23604
1847.56475	0.23748
1845.63618	0.23939
1843.70762	0.24094
1841.77905	0.24078
1839.85049	0.24013
1837.92192	0.24056
1835.99336	0.24149
1834.06479	0.24236
1832.13623	0.24387
1830.20767	0.24656
1828.27910	0.24857
1826.35054	0.24912
1824.42197	0.24982
1822.49341	0.25033
1820.56484	0.25086
1818.63628	0.25200
1816.70771	0.25355
1814.77915	0.25512
1812.85059	0.25723
1810.92202	0.25993
1808.99346	0.26201
1807.06489	0.26334
1805.13633	0.26491
1803.20776	0.26758
1801.27920	0.27101
1799.35063	0.27413
1797.42207	0.27635
1795.49351	0.27879
1793.56494	0.28237
1791.63638	0.28652
1789.70781	0.28879
1787.77925	0.28991
1785.85068	0.29253
1783.92212	0.29636
1781.99355	0.30064
1780.06499	0.30513
1778.13643	0.30933
1776.20786	0.31343
1774.27930	0.31879
1772.35073	0.32617
1770.42217	0.33235
1768.49360	0.33596
1766.56504	0.33958
1764.63647	0.34424
1762.70791	0.35047
1760.77935	0.35831
1758.85078	0.36509
1756.92222	0.37190
1754.99365	0.37927
1753.06509	0.38643
1751.13652	0.39633
1749.20796	0.40866
1747.27939	0.41895
1745.35083	0.42681
1743.42227	0.43551
1741.49370	0.44576
1739.56514	0.45801
1737.63657	0.47013
1735.70801	0.48153
1733.77944	0.49948
1731.85088	0.51889
1729.92231	0.53231
1727.99375	0.54596
1726.06519	0.56156
1724.13662	0.57959
1722.20806	0.59947
1720.27949	0.61852
1718.35093	0.64223
1716.42236	0.67627
1714.49380	0.70554
1712.56523	0.72769
1710.63667	0.74996
1708.70811	0.77560
1706.77954	0.80613
1704.85098	0.84259
1702.92241	0.87466
1700.99385	0.90722
1699.06528	0.95595
1697.13672	0.99975
1695.20815	1.04359
1693.27959	1.08580
1691.35103	1.12112
1689.42246	1.16411
1687.49390	1.21079
1685.56533	1.25711
1683.63677	1.32708
1681.70820	1.39591
1679.77964	1.43880
1677.85107	1.48082
1675.92251	1.53051
1673.99395	1.59268
1672.06538	1.64855
1670.13682	1.70429
1668.20825	1.77601
1666.27969	1.83444
1664.35112	1.88611
1662.42256	1.95262
1660.49399	2.02729
1658.56543	2.08586
1656.63687	2.13427
1654.70830	2.17933
1652.77974	2.24538
1650.85117	2.30375
1648.92261	2.32420
1646.99404	2.34913
1645.06548	2.37052
1643.13691	2.38224
1641.20835	2.39055
1639.27979	2.40087
1637.35122	2.40748
1635.42266	2.40370
1633.49409	2.38812
1631.56553	2.36889
1629.63696	2.34863
1627.70840	2.31618
1625.77983	2.27815
1623.85127	2.23235
1621.92271	2.17718
1619.99414	2.12809
1618.06558	2.08048
1616.13701	2.01210
1614.20845	1.94251
1612.27988	1.89039
1610.35132	1.83661
1608.42275	1.77825
1606.49419	1.72113
1604.56562	1.66909
1602.63706	1.61899
1600.70850	1.57023
1598.77993	1.52549
1596.85137	1.48363
1594.92280	1.44314
1592.99424	1.40409
1591.06567	1.36851
1589.13711	1.33538
1587.20854	1.30479
1585.27998	1.27716
1583.35142	1.25175
1581.42285	1.22876
1579.49429	1.21013
1577.56572	1.19522
1575.63716	1.17728
1573.70859	1.16010
1571.78003	1.14973
1569.85146	1.14126
1567.92290	1.13165
1565.99434	1.12455
1564.06577	1.12118
1562.13721	1.12062
1560.20864	1.12472
1558.28008	1.13635
1556.35151	1.14270
1554.42295	1.14427
1552.49438	1.14684
1550.56582	1.14852
1548.63726	1.14771
1546.70869	1.14413
1544.78013	1.13793
1542.85156	1.12882
1540.92300	1.11211
1538.99443	1.07833
1537.06587	1.05017
1535.13730	1.03206
1533.20874	1.00939
1531.28018	0.98415
1529.35161	0.96592
1527.42305	0.95004
1525.49448	0.93397
1523.56592	0.92082
1521.63735	0.90885
1519.70879	0.89525
1517.78022	0.88300
1515.85166	0.86876
1513.92310	0.85310
1511.99453	0.84005
1510.06597	0.83013
1508.13740	0.82219
1506.20884	0.80551
1504.28027	0.78646
1502.35171	0.77599
1500.42314	0.76875
1498.49458	0.76223
1496.56602	0.75394
1494.63745	0.74417
1492.70889	0.73716
1490.78032	0.73292
1488.85176	0.72783
1486.92319	0.72068
1484.99463	0.71428
1483.06606	0.71016
1481.13750	0.70782
1479.20894	0.70653
1477.28037	0.70685
1475.35181	0.70907
1473.42324	0.71177
1471.49468	0.71142
1469.56611	0.70792
1467.63755	0.70508
1465.70898	0.70390
1463.78042	0.70300
1461.85186	0.70211
1459.92329	0.70317
1457.99473	0.70671
1456.06616	0.70765
1454.13760	0.70293
1452.20903	0.69812
1450.28047	0.69437
1448.35190	0.69139
1446.42334	0.68820
1444.49478	0.68465
1442.56621	0.68121
1440.63765	0.67806
1438.70908	0.67550
1436.78052	0.67249
1434.85195	0.66785
1432.92339	0.66388
1430.99482	0.66177
1429.06626	0.66053
1427.13770	0.65975
1425.20913	0.66038
1423.28057	0.66219
1421.35200	0.66389
1419.42344	0.66568
1417.49487	0.66609
1415.56631	0.66395
1413.63774	0.66220
1411.70918	0.66215
1409.78062	0.66330
1407.85205	0.66518
1405.92349	0.66788
1403.99492	0.67029
1402.06636	0.67116
1400.13779	0.67132
1398.20923	0.67090
1396.28066	0.66887
1394.35210	0.66444
1392.42354	0.65841
1390.49497	0.65307
1388.56641	0.64851
1386.63784	0.64294
1384.70928	0.63618
1382.78071	0.62990
1380.85215	0.62458
1378.92358	0.62026
1376.99502	0.61734
1375.06646	0.61572
1373.13789	0.61413
1371.20933	0.61250
1369.28076	0.61144
1367.35220	0.61013
1365.42363	0.60852
1363.49507	0.60748
1361.56650	0.60609
1359.63794	0.60361
1357.70937	0.60137
1355.78081	0.59989
1353.85225	0.59873
1351.92368	0.59777
1349.99512	0.59713
1348.06655	0.59650
1346.13799	0.59564
1344.20942	0.59493
1342.28086	0.59481
1340.35229	0.59527
1338.42373	0.59525
1336.49517	0.59414
1334.56660	0.59292
1332.63804	0.59247
1330.70947	0.59272
1328.78091	0.59329
1326.85234	0.59409
1324.92378	0.59524
1322.99521	0.59658
1321.06665	0.59791
1319.13809	0.59907
1317.20952	0.59979
1315.28096	0.59998
1313.35239	0.59983
1311.42383	0.59937
1309.49526	0.59872
1307.56670	0.59817
1305.63813	0.59778
1303.70957	0.59734
1301.78101	0.59663
1299.85244	0.59567
1297.92388	0.59457
1295.99531	0.59337
1294.06675	0.59214
1292.13818	0.59092
1290.20962	0.58961
1288.28105	0.58823
1286.35249	0.58676
1284.42393	0.58514
1282.49536	0.58348
1280.56680	0.58199
1278.63823	0.58057
1276.70967	0.57920
1274.78110	0.57798
1272.85254	0.57697
1270.92397	0.57610
1268.99541	0.57531
1267.06685	0.57456
1265.13828	0.57368
1263.20972	0.57272
1261.28115	0.57186
1259.35259	0.57097
1257.42402	0.56999
1255.49546	0.56927
1253.56689	0.56902
1251.63833	0.56922
1249.70977	0.56958
1247.78120	0.56979
1245.85264	0.56966
1243.92407	0.56903
1241.99551	0.56788
1240.06694	0.56630
1238.13838	0.56431
1236.20981	0.56200
1234.28125	0.55953
1232.35269	0.55701
1230.42412	0.55451
1228.49556	0.55214
1226.56699	0.54984
1224.63843	0.54758
1222.70986	0.54558
1220.78130	0.54391
1218.85273	0.54244
1216.92417	0.54097
1214.99561	0.53952
1213.06704	0.53845
1211.13848	0.53774
1209.20991	0.53701
1207.28135	0.53612
1205.35278	0.53524
1203.42422	0.53450
1201.49565	0.53375
1199.56709	0.53285
1197.63853	0.53195
1195.70996	0.53113
1193.78140	0.53039
1191.85283	0.52988
1189.92427	0.52965
1187.99570	0.52941
1186.06714	0.52922
1184.13857	0.52940
1182.21001	0.52999
1180.28145	0.53109
1178.35288	0.53279
1176.42432	0.53463
1174.49575	0.53617
1172.56719	0.53721
1170.63862	0.53764
1168.71006	0.53756
1166.78149	0.53733
1164.85293	0.53723
1162.92437	0.53721
1160.99580	0.53709
1159.06724	0.53678
1157.13867	0.53625
1155.21011	0.53533
1153.28154	0.53392
1151.35298	0.53205
1149.42441	0.52974
1147.49585	0.52709
1145.56729	0.52431
1143.63872	0.52160
1141.71016	0.51917
1139.78159	0.51720
1137.85303	0.51576
1135.92446	0.51489
1133.99590	0.51460
1132.06733	0.51462
1130.13877	0.51465
1128.21021	0.51448
1126.28164	0.51408
1124.35308	0.51360
1122.42451	0.51318
1120.49595	0.51289
1118.56738	0.51290
1116.63882	0.51319
1114.71025	0.51354
1112.78169	0.51399
1110.85312	0.51460
1108.92456	0.51526
1106.99600	0.51624
1105.06743	0.51744
1103.13887	0.51848
1101.21030	0.51957
1099.28174	0.52107
1097.35317	0.52304
1095.42461	0.52577
1093.49604	0.52945
1091.56748	0.53395
1089.63892	0.53943
1087.71035	0.54601
1085.78179	0.55328
1083.85322	0.56082
1081.92466	0.56783
1079.99609	0.57304
1078.06753	0.57560
1076.13896	0.57539
1074.21040	0.57249
1072.28184	0.56725
1070.35327	0.56076
1068.42471	0.55400
1066.49614	0.54727
1064.56758	0.54086
1062.63901	0.53521
1060.71045	0.53024
1058.78188	0.52564
1056.85332	0.52161
1054.92476	0.51816
1052.99619	0.51505
1051.06763	0.51237
1049.13906	0.51036
1047.21050	0.50886
1045.28193	0.50759
1043.35337	0.50658
1041.42480	0.50593
1039.49624	0.50538
1037.56768	0.50467
1035.63911	0.50396
1033.71055	0.50337
1031.78198	0.50266
1029.85342	0.50156
1027.92485	0.50008
1025.99629	0.49873
1024.06772	0.49793
1022.13916	0.49747
1020.21060	0.49718
1018.28203	0.49711
1016.35347	0.49723
1014.42490	0.49741
1012.49634	0.49758
1010.56777	0.49776
1008.63921	0.49813
1006.71064	0.49882
1004.78208	0.49983
1002.85352	0.50144
1000.92495	0.50394
998.99639	0.50715
997.06782	0.51109
995.13926	0.51570
993.21069	0.52011
991.28213	0.52340
989.35356	0.52542
987.42500	0.52636
985.49644	0.52657
983.56787	0.52660
981.63931	0.52688
979.71074	0.52760
977.78218	0.52868
975.85361	0.53018
973.92505	0.53246
971.99648	0.53537
970.06792	0.53849
968.13936	0.54195
966.21079	0.54603
964.28223	0.55046
962.35366	0.55491
960.42510	0.55953
958.49653	0.56463
956.56797	0.57027
954.63940	0.57626
952.71084	0.58246
950.78228	0.58858
948.85371	0.59452
946.92515	0.60054
944.99658	0.60666
943.06802	0.61286
941.13945	0.61915
939.21089	0.62524
937.28232	0.63086
935.35376	0.63609
933.42520	0.64148
931.49663	0.64728
929.56807	0.65290
927.63950	0.65799
925.71094	0.66311
923.78237	0.66909
921.85381	0.67601
919.92524	0.68340
917.99668	0.69078
916.06812	0.69801
914.13955	0.70533
912.21099	0.71275
910.28242	0.72027
908.35386	0.72796
906.42529	0.73599
904.49673	0.74416
902.56816	0.75190
900.63960	0.76019
898.71104	0.77001
896.78247	0.78006
894.85391	0.79004
892.92534	0.80106
890.99678	0.81196
889.06821	0.82194
887.13965	0.83263
885.21108	0.84420
883.28252	0.85561
881.35396	0.86704
879.42539	0.87841
877.49683	0.88897
875.56826	0.89940
873.63970	0.91106
871.71113	0.92394
869.78257	0.93593
867.85400	0.94571
865.92544	0.95538
863.99687	0.96684
862.06831	0.97913
860.13975	0.99071
858.21118	1.00199
856.28262	1.01399
854.35405	1.02619
852.42549	1.03722
850.49692	1.04777
848.56836	1.06080
846.63979	1.07530
844.71123	1.08688
842.78267	1.09649
840.85410	1.10869
838.92554	1.12290
836.99697	1.13442
835.06841	1.14257
833.13984	1.15189
831.21128	1.16447
829.28271	1.17681
827.35415	1.18783
825.42559	1.20130
823.49702	1.21563
821.56846	1.22678
819.63989	1.24233
817.71133	1.26443
815.78276	1.28008
813.85420	1.28753
811.92563	1.29597
809.99707	1.30268
808.06851	1.30539
806.13994	1.31723
804.21138	1.33549
802.28281	1.34335
800.35425	1.33545
798.42568	1.32282
796.49712	1.33361
794.56855	1.37219
792.63999	1.40189
790.71143	1.38261
788.78286	1.33913
786.85430	1.34405
784.92573	1.41264
782.99717	1.45978
781.06860	1.45968
779.14004	1.49076
777.21147	1.51696
775.28291	1.49670
773.35435	1.48092
771.42578	1.46123
769.49722	1.38476
767.56865	1.34348
765.64009	1.33965
763.71152	1.36513
761.78296	1.46674
759.85439	1.72018
757.92583	4.54755
755.99727	4.53598
754.06870	2.80089
752.14014	1.47568
750.21157	1.26191
748.28301	1.17389
746.35444	1.11062
744.42588	1.06279
742.49731	1.03548
740.56875	1.05413
738.64019	1.13945
736.71162	1.20254
734.78306	1.13632
732.85449	1.01559
730.92593	0.87740
728.99736	0.72253
727.06880	0.60911
725.14023	0.61777
723.21167	0.79413
721.28311	0.97319
719.35454	0.58463
717.42598	0.29408
715.49741	0.15866
713.56885	0.06793
711.64028	0.00038
709.71172	-0.06687
707.78315	-0.27222
705.85459	-0.27148
703.92603	-0.15050
701.99746	-0.08513
700.06890	0.02184
698.14033	0.08966
696.21177	0.20310
694.28320	0.34152
692.35464	0.32336
690.42607	0.28120
688.49751	0.27723
686.56895	0.18840
684.64038	0.04966
682.71182	0.01825
680.78325	0.05785
678.85469	0.04743
676.92612	0.07342
674.99756	0.16132
673.06899	0.20912
671.14043	0.15058
669.21187	0.11371
667.28330	0.13655
665.35474	0.18426
663.42617	0.27357
661.49761	0.31915
659.56904	0.25757
657.64048	0.29751
655.71191	0.45144
653.78335	0.49655
651.85479	0.44266
649.92622	0.43482
647.99766	0.45576
646.06909	0.40440
644.14053	0.30367
642.21196	0.28476
640.28340	0.33992
638.35483	0.30586
636.42627	0.25868
634.49771	0.27569
632.56914	0.28432
630.64058	0.30560
628.71201	0.46422
626.78345	0.76533
624.85488	0.72810
622.92632	0.44107
620.99775	0.32829
619.06919	0.26072
617.14062	0.22213
615.21206	0.26553
613.28350	0.28478
611.35493	0.20980
609.42637	0.18309
607.49780	0.21454
605.56924	0.23521
603.64067	0.22009
601.71211	0.19126
599.78354	0.19093
597.85498	0.27242
595.92642	0.37313
593.99785	0.31302
592.06929	0.30200
590.14072	0.53226
588.21216	3.52927
586.28359	3.51770
584.35503	0.25447
582.42646	0.10816
580.49790	0.11572
578.56934	0.17955
576.64077	0.26655
574.71221	0.28534
572.78364	0.20647
570.85508	0.12288
568.92651	0.09597
566.99795	0.15827
565.06938	0.26067
563.14082	0.25426
561.21226	0.21101
559.28369	0.17990
557.35513	0.16591
555.42656	0.20573
553.49800	0.24527
551.56943	0.21617
549.64087	0.18362
547.71230	0.18827
545.78374	0.24934
543.85518	0.32522
541.92661	0.33813
539.99805	0.32414
538.06948	0.31699
536.14092	0.30866
534.21235	0.28878
532.28379	0.27105
530.35522	0.21553
528.42666	0.13511
526.49810	0.11877
524.56953	0.15572
522.64097	0.23602
520.71240	0.38288
518.78384	0.42550
516.85527	0.32545
514.92671	0.26945
512.99814	0.27271
511.06958	0.38448
509.14102	0.65959
507.21245	0.69460
505.28389	0.39396
503.35532	0.20977
501.42676	0.11316
499.49819	0.10746
