3997.91411	0.06779
3995.98555	0.06770
3994.05698	0.06822
3992.12842	0.06894
3990.19985	0.06936
3988.27129	0.06986
3986.34272	0.07019
3984.41416	0.06986
3982.48560	0.06963
3980.55703	0.07001
3978.62847	0.07041
3976.69990	0.07060
3974.77134	0.07090
3972.84277	0.07144
3970.91421	0.07188
3968.98564	0.07195
3967.05708	0.07205
3965.12852	0.07232
3963.19995	0.07247
3961.27139	0.07244
3959.34282	0.07242
3957.41426	0.07247
3955.48569	0.07258
3953.55713	0.07254
3951.62856	0.07216
3949.70000	0.07170
3947.77144	0.07155
3945.84287	0.07173
3943.91431	0.07185
3941.98574	0.07177
3940.05718	0.07193
3938.12861	0.07229
3936.20005	0.07225
3934.27148	0.07191
3932.34292	0.07187
3930.41436	0.07218
3928.48579	0.07242
3926.55723	0.07247
3924.62866	0.07229
3922.70010	0.07198
3920.77153	0.07182
3918.84297	0.07163
3916.91440	0.07141
3914.98584	0.07159
3913.05728	0.07187
3911.12871	0.07171
3909.20015	0.07128
3907.27158	0.07111
3905.34302	0.07104
3903.41445	0.07076
3901.48589	0.07057
3899.55732	0.07061
3897.62876	0.07069
3895.70020	0.07078
3893.77163	0.07092
3891.84307	0.07132
3889.91450	0.07190
3887.98594	0.07191
3886.05737	0.07167
3884.12881	0.07200
3882.20024	0.07236
3880.27168	0.07238
3878.34312	0.07238
3876.41455	0.07216
3874.48599	0.07196
3872.55742	0.07195
3870.62886	0.07209
3868.70029	0.07294
3866.77173	0.07368
3864.84316	0.07349
3862.91460	0.07325
3860.98604	0.07365
3859.05747	0.07424
3857.12891	0.07438
3855.20034	0.07411
3853.27178	0.07424
3851.34321	0.07539
3849.41465	0.07617
3847.48608	0.07653
3845.55752	0.07678
3843.62896	0.07689
3841.70039	0.07709
3839.77183	0.07758
3837.84326	0.07856
3835.91470	0.08012
3833.98613	0.08140
3832.05757	0.08201
3830.12900	0.08235
3828.20044	0.08257
3826.27187	0.08304
3824.34331	0.08374
3822.41475	0.08428
3820.48618	0.08530
3818.55762	0.08638
3816.62905	0.08665
3814.70049	0.08747
3812.77192	0.08920
3810.84336	0.09054
3808.91479	0.09120
3806.98623	0.09174
3805.05767	0.09268
3803.12910	0.09372
3801.20054	0.09489
3799.27197	0.09663
3797.34341	0.09836
3795.41484	0.09985
3793.48628	0.10101
3791.55771	0.10177
3789.62915	0.10247
3787.70059	0.10357
3785.77202	0.10543
3783.84346	0.10764
3781.91489	0.10926
3779.98633	0.11040
3778.05776	0.11197
3776.12920	0.11381
3774.20063	0.11523
3772.27207	0.11628
3770.34351	0.11761
3768.41494	0.11966
3766.48638	0.12175
3764.55781	0.12377
3762.62925	0.12573
3760.70068	0.12745
3758.77212	0.12944
3756.84355	0.13171
3754.91499	0.13359
3752.98643	0.13534
3751.05786	0.13810
3749.12930	0.14216
3747.20073	0.14514
3745.27217	0.14749
3743.34360	0.15139
3741.41504	0.15500
3739.48647	0.15684
3737.55791	0.15857
3735.62935	0.16176
3733.70078	0.16712
3731.77222	0.17254
3729.84365	0.17682
3727.91509	0.18077
3725.98652	0.18555
3724.05796	0.19165
3722.12939	0.19909
3720.20083	0.20797
3718.27227	0.21698
3716.34370	0.22530
3714.41514	0.23294
3712.48657	0.24116
3710.55801	0.25275
3708.62944	0.26667
3706.70088	0.27907
3704.77231	0.29060
3702.84375	0.30374
3700.91519	0.32106
3698.98662	0.33998
3697.05806	0.35741
3695.12949	0.37588
3693.20093	0.39549
3691.27236	0.41608
3689.34380	0.44307
3687.41523	0.47893
3685.48667	0.51196
3683.55811	0.53978
3681.62954	0.56816
3679.70098	0.59907
3677.77241	0.63105
3675.84385	0.66861
3673.91528	0.72077
3671.98672	0.76494
3670.05815	0.80392
3668.12959	0.85804
3666.20103	0.90859
3664.27246	0.95051
3662.34390	0.99452
3660.41533	1.04138
3658.48677	1.08706
3656.55820	1.13558
3654.62964	1.19056
3652.70107	1.23692
3650.77251	1.27547
3648.84395	1.32836
3646.91538	1.39751
3644.98682	1.45060
3643.05825	1.49120
3641.12969	1.53215
3639.20112	1.57668
3637.27256	1.62090
3635.34399	1.66328
3633.41543	1.70545
3631.48687	1.74522
3629.55830	1.78575
3627.62974	1.83984
3625.70117	1.89135
3623.77261	1.92596
3621.84404	1.95919
3619.91548	1.99739
3617.98691	2.04272
3616.05835	2.08624
3614.12979	2.12248
3612.20122	2.16034
3610.27266	2.19975
3608.34409	2.24053
3606.41553	2.28377
3604.48696	2.32385
3602.55840	2.35864
3600.62983	2.39540
3598.70127	2.43654
3596.77271	2.47643
3594.84414	2.51620
3592.91558	2.55900
3590.98701	2.59959
3589.05845	2.63548
3587.12988	2.67789
3585.20132	2.72751
3583.27275	2.77148
3581.34419	2.81108
3579.41562	2.85098
3577.48706	2.89150
3575.55850	2.93240
3573.62993	2.97569
3571.70137	3.01926
3569.77280	3.06018
3567.84424	3.10172
3565.91567	3.15158
3563.98711	3.20035
3562.05854	3.24056
3560.12998	3.28215
3558.20142	3.32910
3556.27285	3.37636
3554.34429	3.41894
3552.41572	3.46183
3550.48716	3.50838
3548.55859	3.55494
3546.63003	3.60027
3544.70146	3.64705
3542.77290	3.69459
3540.84434	3.74106
3538.91577	3.78698
3536.98721	3.83349
3535.05864	3.88449
3533.13008	3.93670
3531.20151	3.98551
3529.27295	4.03159
3527.34438	4.07650
3525.41582	4.12007
3523.48726	4.16378
3521.55869	4.21224
3519.63013	4.26486
3517.70156	4.31742
3515.77300	4.36436
3513.84443	4.40613
3511.91587	4.45046
3509.98730	4.50020
3508.05874	4.54861
3506.13018	4.59129
3504.20161	4.63610
3502.27305	4.68878
3500.34448	4.74064
3498.41592	4.78682
3496.48735	4.83400
3494.55879	4.88172
3492.63022	4.92682
3490.70166	4.97028
3488.77310	5.01377
3486.84453	5.06208
3484.91597	5.11595
3482.98740	5.16939
3481.05884	5.21806
3479.13027	5.26186
3477.20171	5.30941
3475.27314	5.36172
3473.34458	5.40524
3471.41602	5.43855
3469.48745	5.48409
3467.55889	5.55165
3465.63032	5.62027
3463.70176	5.67757
3461.77319	5.72314
3459.84463	5.76614
3457.91606	5.81403
3455.98750	5.85429
3454.05894	5.88917
3452.13037	5.93622
3450.20181	5.99140
3448.27324	6.03743
3446.34468	6.08528
3444.41611	6.14676
3442.48755	6.21042
3440.55898	6.26357
3438.63042	6.30452
3436.70186	6.34147
3434.77329	6.38095
3432.84473	6.42554
3430.91616	6.47491
3428.98760	6.53186
3427.05903	6.58856
3425.13047	6.64673
3423.20190	6.71160
3421.27334	6.76559
3419.34478	6.79087
3417.41621	6.81671
3415.48765	6.87660
3413.55908	6.93782
3411.63052	6.96717
3409.70195	6.97998
3407.77339	7.01715
3405.84482	7.07425
3403.91626	7.12847
3401.98770	7.19164
3400.05913	7.24163
3398.13057	7.24974
3396.20200	7.25334
3394.27344	7.27501
3392.34487	7.29089
3390.41631	7.31307
3388.48774	7.36470
3386.55918	7.44242
3384.63062	7.48617
3382.70205	7.48910
3380.77349	7.52283
3378.84492	7.59490
3376.91636	7.66611
3374.98779	7.67573
3373.05923	7.63114
3371.13066	7.58339
3369.20210	7.58162
3367.27354	7.66445
3365.34497	7.79789
3363.41641	7.87333
3361.48784	7.83915
3359.55928	7.80410
3357.63071	7.88154
3355.70215	8.02347
3353.77358	8.07149
3351.84502	8.03485
3349.91646	7.96010
3347.98789	7.88144
3346.05933	7.88525
3344.13076	7.95252
3342.20220	7.99479
3340.27363	7.99239
3338.34507	8.02110
3336.41650	8.05480
3334.48794	8.01915
3332.55937	7.95754
3330.63081	7.89881
3328.70225	7.84870
3326.77368	7.87234
3324.84512	7.95008
3322.91655	7.96569
3320.98799	7.95052
3319.05942	7.96230
3317.13086	7.95935
3315.20229	7.95679
3313.27373	8.04196
3311.34517	8.19735
3309.41660	8.28387
3307.48804	8.23340
3305.55947	8.12185
3303.63091	8.04739
3301.70234	8.04850
3299.77378	8.10001
3297.84521	8.15199
3295.91665	8.22726
3293.98809	8.28451
3292.05952	8.23551
3290.13096	8.13985
3288.20239	8.11215
3286.27383	8.16751
3284.34526	8.16868
3282.41670	8.05748
3280.48813	7.97230
3278.55957	8.00470
3276.63101	8.04710
3274.70244	8.00098
3272.77388	7.96271
3270.84531	8.01210
3268.91675	8.12371
3266.98818	8.23944
3265.05962	8.28140
3263.13105	8.19134
3261.20249	8.09319
3259.27393	8.11291
3257.34536	8.22622
3255.41680	8.28022
3253.48823	8.22003
3251.55967	8.20047
3249.63110	8.25729
3247.70254	8.30296
3245.77397	8.28284
3243.84541	8.22915
3241.91685	8.21053
3239.98828	8.22128
3238.05972	8.19240
3236.13115	8.13672
3234.20259	8.14538
3232.27402	8.17402
3230.34546	8.14909
3228.41689	8.12480
3226.48833	8.10126
3224.55977	8.06858
3222.63120	8.03648
3220.70264	7.98342
3218.77407	7.98303
3216.84551	8.04876
3214.91694	8.08115
3212.98838	8.04703
3211.05981	7.94795
3209.13125	7.84354
3207.20269	7.80626
3205.27412	7.79384
3203.34556	7.73666
3201.41699	7.67843
3199.48843	7.68283
3197.55986	7.70284
3195.63130	7.68138
3193.70273	7.62985
3191.77417	7.55288
3189.84561	7.47041
3187.91704	7.39094
3185.98848	7.29285
3184.05991	7.21008
3182.13135	7.19031
3180.20278	7.21419
3178.27422	7.22228
3176.34565	7.17836
3174.41709	7.09144
3172.48853	7.00502
3170.55996	6.93230
3168.63140	6.84842
3166.70283	6.77357
3164.77427	6.74455
3162.84570	6.73412
3160.91714	6.69195
3158.98857	6.61082
3157.06001	6.50082
3155.13145	6.37857
3153.20288	6.28061
3151.27432	6.22865
3149.34575	6.19100
3147.41719	6.13064
3145.48862	6.06184
3143.56006	6.00261
3141.63149	5.94211
3139.70293	5.86718
3137.77437	5.78756
3135.84580	5.72153
3133.91724	5.66307
3131.98867	5.59071
3130.06011	5.51135
3128.13154	5.44506
3126.20298	5.38285
3124.27441	5.30863
3122.34585	5.22859
3120.41729	5.15761
3118.48872	5.09377
3116.56016	5.02545
3114.63159	4.95342
3112.70303	4.88762
3110.77446	4.82781
3108.84590	4.76429
3106.91733	4.69740
3104.98877	4.63310
3103.06021	4.56770
3101.13164	4.49748
3099.20308	4.43120
3097.27451	4.37209
3095.34595	4.31112
3093.41738	4.24602
3091.48882	4.17948
3089.56025	4.11294
3087.63169	4.04978
3085.70312	3.98950
3083.77456	3.92861
3081.84600	3.86724
3079.91743	3.80673
3077.98887	3.74761
3076.06030	3.68881
3074.13174	3.63070
3072.20317	3.57466
3070.27461	3.51877
3068.34604	3.46318
3066.41748	3.40985
3064.48892	3.35680
3062.56035	3.30239
3060.63179	3.24892
3058.70322	3.19733
3056.77466	3.14638
3054.84609	3.09552
3052.91753	3.04479
3050.98896	2.99457
3049.06040	2.94431
3047.13184	2.89442
3045.20327	2.84595
3043.27471	2.79838
3041.34614	2.75173
3039.41758	2.70633
3037.48901	2.66129
3035.56045	2.61555
3033.63188	2.56991
3031.70332	2.52559
3029.77476	2.48226
3027.84619	2.43991
3025.91763	2.39867
3023.98906	2.35773
3022.06050	2.31699
3020.13193	2.27695
3018.20337	2.23742
3016.27480	2.19825
3014.34624	2.15955
3012.41768	2.12137
3010.48911	2.08395
3008.56055	2.04782
3006.63198	2.01288
3004.70342	1.97850
3002.77485	1.94431
3000.84629	1.91025
2998.91772	1.87681
2996.98916	1.84481
2995.06060	1.81383
2993.13203	1.78288
2991.20347	1.75281
2989.27490	1.72404
2987.34634	1.69553
2985.41777	1.66751
2983.48921	1.64049
2981.56064	1.61388
2979.63208	1.58748
2977.70352	1.56154
2975.77495	1.53593
2973.84639	1.51112
2971.91782	1.48751
2969.98926	1.46429
2968.06069	1.44109
2966.13213	1.41802
2964.20356	1.39515
2962.27500	1.37238
2960.34644	1.34925
2958.41787	1.32607
2956.48931	1.30308
2954.56074	1.28023
2952.63218	1.25768
2950.70361	1.23533
2948.77505	1.21313
2946.84648	1.19146
2944.91792	1.17050
2942.98936	1.15014
2941.06079	1.13053
2939.13223	1.11128
2937.20366	1.09194
2935.27510	1.07314
2933.34653	1.05489
2931.41797	1.03615
2929.48940	1.01689
2927.56084	0.99815
2925.63228	0.98029
2923.70371	0.96291
2921.77515	0.94554
2919.84658	0.92835
2917.91802	0.91162
2915.98945	0.89494
2914.06089	0.87828
2912.13232	0.86220
2910.20376	0.84652
2908.27520	0.83086
2906.34663	0.81572
2904.41807	0.80146
2902.48950	0.78784
2900.56094	0.77439
2898.63237	0.76092
2896.70381	0.74790
2894.77524	0.73555
2892.84668	0.72359
2890.91812	0.71194
2888.98955	0.70054
2887.06099	0.68942
2885.13242	0.67887
2883.20386	0.66878
2881.27529	0.65891
2879.34673	0.64931
2877.41816	0.64009
2875.48960	0.63087
2873.56104	0.62111
2871.63247	0.61081
2869.70391	0.60031
2867.77534	0.58959
2865.84678	0.57841
2863.91821	0.56708
2861.98965	0.55600
2860.06108	0.54532
2858.13252	0.53533
2856.20396	0.52600
2854.27539	0.51697
2852.34683	0.50812
2850.41826	0.49939
2848.48970	0.49094
2846.56113	0.48312
2844.63257	0.47574
2842.70400	0.46851
2840.77544	0.46173
2838.84687	0.45559
2836.91831	0.44960
2834.98975	0.44324
2833.06118	0.43684
2831.13262	0.43085
2829.20405	0.42519
2827.27549	0.41944
2825.34692	0.41339
2823.41836	0.40734
2821.48979	0.40144
2819.56123	0.39572
2817.63267	0.39014
2815.70410	0.38464
2813.77554	0.37914
2811.84697	0.37367
2809.91841	0.36837
2807.98984	0.36315
2806.06128	0.35786
2804.13271	0.35256
2802.20415	0.34746
2800.27559	0.34270
2798.34702	0.33807
2796.41846	0.33345
2794.48989	0.32897
2792.56133	0.32447
2790.63276	0.31982
2788.70420	0.31536
2786.77563	0.31109
2784.84707	0.30680
2782.91851	0.30257
2780.98994	0.29853
2779.06138	0.29463
2777.13281	0.29078
2775.20425	0.28695
2773.27568	0.28323
2771.34712	0.27970
2769.41855	0.27623
2767.48999	0.27279
2765.56143	0.26939
2763.63286	0.26603
2761.70430	0.26279
2759.77573	0.25962
2757.84717	0.25641
2755.91860	0.25316
2753.99004	0.24992
2752.06147	0.24682
2750.13291	0.24395
2748.20435	0.24118
2746.27578	0.23838
2744.34722	0.23566
2742.41865	0.23316
2740.49009	0.23069
2738.56152	0.22798
2736.63296	0.22519
2734.70439	0.22262
2732.77583	0.22025
2730.84727	0.21796
2728.91870	0.21581
2726.99014	0.21380
2725.06157	0.21165
2723.13301	0.20932
2721.20444	0.20710
2719.27588	0.20514
2717.34731	0.20319
2715.41875	0.20120
2713.49019	0.19944
2711.56162	0.19779
2709.63306	0.19593
2707.70449	0.19409
2705.77593	0.19260
2703.84736	0.19123
2701.91880	0.18967
2699.99023	0.18810
2698.06167	0.18658
2696.13311	0.18496
2694.20454	0.18336
2692.27598	0.18198
2690.34741	0.18071
2688.41885	0.17957
2686.49028	0.17856
2684.56172	0.17743
2682.63315	0.17608
2680.70459	0.17471
2678.77603	0.17361
2676.84746	0.17265
2674.91890	0.17158
2672.99033	0.17034
2671.06177	0.16912
2669.13320	0.16816
2667.20464	0.16728
2665.27607	0.16634
2663.34751	0.16544
2661.41895	0.16454
2659.49038	0.16369
2657.56182	0.16303
2655.63325	0.16241
2653.70469	0.16169
2651.77612	0.16102
2649.84756	0.16049
2647.91899	0.15990
2645.99043	0.15912
2644.06187	0.15829
2642.13330	0.15756
2640.20474	0.15701
2638.27617	0.15659
2636.34761	0.15620
2634.41904	0.15574
2632.49048	0.15517
2630.56191	0.15464
2628.63335	0.15428
2626.70479	0.15399
2624.77622	0.15366
2622.84766	0.15334
2620.91909	0.15309
2618.99053	0.15283
2617.06196	0.15247
2615.13340	0.15221
2613.20483	0.15216
2611.27627	0.15212
2609.34771	0.15190
2607.41914	0.15155
2605.49058	0.15122
2603.56201	0.15103
2601.63345	0.15097
2599.70488	0.15101
2597.77632	0.15120
2595.84775	0.15147
2593.91919	0.15158
2591.99062	0.15144
2590.06206	0.15122
2588.13350	0.15125
2586.20493	0.15158
2584.27637	0.15192
2582.34780	0.15217
2580.41924	0.15244
2578.49067	0.15273
2576.56211	0.15295
2574.63354	0.15307
2572.70498	0.15315
2570.77642	0.15336
2568.84785	0.15375
2566.91929	0.15417
2564.99072	0.15452
2563.06216	0.15484
2561.13359	0.15520
2559.20503	0.15560
2557.27646	0.15596
2555.34790	0.15636
2553.41934	0.15688
2551.49077	0.15743
2549.56221	0.15792
2547.63364	0.15846
2545.70508	0.15909
2543.77651	0.15963
2541.84795	0.16007
2539.91938	0.16058
2537.99082	0.16120
2536.06226	0.16181
2534.13369	0.16236
2532.20513	0.16297
2530.27656	0.16363
2528.34800	0.16421
2526.41943	0.16472
2524.49087	0.16532
2522.56230	0.16603
2520.63374	0.16680
2518.70518	0.16763
2516.77661	0.16843
2514.84805	0.16911
2512.91948	0.16976
2510.99092	0.17044
2509.06235	0.17108
2507.13379	0.17179
2505.20522	0.17254
2503.27666	0.17318
2501.34810	0.17388
2499.41953	0.17484
2497.49097	0.17582
2495.56240	0.17662
2493.63384	0.17740
2491.70527	0.17827
2489.77671	0.17910
2487.84814	0.17986
2485.91958	0.18059
2483.99102	0.18131
2482.06245	0.18212
2480.13389	0.18299
2478.20532	0.18385
2476.27676	0.18473
2474.34819	0.18561
2472.41963	0.18651
2470.49106	0.18737
2468.56250	0.18811
2466.63394	0.18888
2464.70537	0.18986
2462.77681	0.19083
2460.84824	0.19167
2458.91968	0.19253
2456.99111	0.19350
2455.06255	0.19439
2453.13398	0.19513
2451.20542	0.19605
2449.27686	0.19716
2447.34829	0.19819
2445.41973	0.19907
2443.49116	0.20001
2441.56260	0.20109
2439.63403	0.20214
2437.70547	0.20299
2435.77690	0.20376
2433.84834	0.20469
2431.91978	0.20572
2429.99121	0.20665
2428.06265	0.20758
2426.13408	0.20865
2424.20552	0.20980
2422.27695	0.21090
2420.34839	0.21191
2418.41982	0.21291
2416.49126	0.21399
2414.56270	0.21514
2412.63413	0.21626
2410.70557	0.21732
2408.77700	0.21844
2406.84844	0.21968
2404.91987	0.22092
2402.99131	0.22204
2401.06274	0.22321
2399.13418	0.22440
2397.20562	0.22545
2395.27705	0.22644
2393.34849	0.22756
2391.41992	0.22879
2389.49136	0.22988
2387.56279	0.23071
2385.63423	0.23120
2383.70566	0.23117
2381.77710	0.23055
2379.84854	0.22951
2377.91997	0.22815
2375.99141	0.22633
2374.06284	0.22389
2372.13428	0.22072
2370.20571	0.21677
2368.27715	0.21236
2366.34858	0.20802
2364.42002	0.20441
2362.49146	0.20311
2360.56289	0.20433
2358.63433	0.20567
2356.70576	0.20858
2354.77720	0.21564
2352.84863	0.22515
2350.92007	0.23361
2348.99150	0.23809
2347.06294	0.23856
2345.13437	0.23626
2343.20581	0.23329
2341.27725	0.23210
2339.34868	0.23326
2337.42012	0.23580
2335.49155	0.23870
2333.56299	0.24165
2331.63442	0.24443
2329.70586	0.24685
2327.77729	0.24929
2325.84873	0.25233
2323.92017	0.25595
2321.99160	0.25989
2320.06304	0.26402
2318.13447	0.26797
2316.20591	0.27115
2314.27734	0.27377
2312.34878	0.27656
2310.42021	0.27955
2308.49165	0.28239
2306.56309	0.28531
2304.63452	0.28840
2302.70596	0.29124
2300.77739	0.29384
2298.84883	0.29638
2296.92026	0.29879
2294.99170	0.30102
2293.06313	0.30330
2291.13457	0.30577
2289.20601	0.30833
2287.27744	0.31085
2285.34888	0.31326
2283.42031	0.31545
2281.49175	0.31743
2279.56318	0.31939
2277.63462	0.32138
2275.70605	0.32333
2273.77749	0.32517
2271.84893	0.32706
2269.92036	0.32919
2267.99180	0.33149
2266.06323	0.33364
2264.13467	0.33557
2262.20610	0.33758
2260.27754	0.33978
2258.34897	0.34197
2256.42041	0.34417
2254.49185	0.34643
2252.56328	0.34862
2250.63472	0.35080
2248.70615	0.35301
2246.77759	0.35515
2244.84902	0.35725
2242.92046	0.35942
2240.99189	0.36167
2239.06333	0.36399
2237.13477	0.36631
2235.20620	0.36862
2233.27764	0.37089
2231.34907	0.37305
2229.42051	0.37516
2227.49194	0.37735
2225.56338	0.37950
2223.63481	0.38154
2221.70625	0.38360
2219.77769	0.38581
2217.84912	0.38808
2215.92056	0.39028
2213.99199	0.39241
2212.06343	0.39446
2210.13486	0.39646
2208.20630	0.39849
2206.27773	0.40063
2204.34917	0.40273
2202.42061	0.40476
2200.49204	0.40677
2198.56348	0.40871
2196.63491	0.41059
2194.70635	0.41243
2192.77778	0.41426
2190.84922	0.41617
2188.92065	0.41809
2186.99209	0.41992
2185.06353	0.42170
2183.13496	0.42340
2181.20640	0.42498
2179.27783	0.42651
2177.34927	0.42802
2175.42070	0.42956
2173.49214	0.43113
2171.56357	0.43258
2169.63501	0.43386
2167.70645	0.43513
2165.77788	0.43644
2163.84932	0.43765
2161.92075	0.43876
2159.99219	0.43991
2158.06362	0.44099
2156.13506	0.44188
2154.20649	0.44275
2152.27793	0.44371
2150.34937	0.44463
2148.42080	0.44532
2146.49224	0.44584
2144.56367	0.44634
2142.63511	0.44683
2140.70654	0.44723
2138.77798	0.44745
2136.84941	0.44748
2134.92085	0.44758
2132.99229	0.44780
2131.06372	0.44795
2129.13516	0.44791
2127.20659	0.44776
2125.27803	0.44752
2123.34946	0.44703
2121.42090	0.44643
2119.49233	0.44593
2117.56377	0.44553
2115.63521	0.44506
2113.70664	0.44447
2111.77808	0.44375
2109.84951	0.44283
2107.92095	0.44178
2105.99238	0.44073
2104.06382	0.43969
2102.13525	0.43854
2100.20669	0.43724
2098.27812	0.43587
2096.34956	0.43448
2094.42100	0.43305
2092.49243	0.43161
2090.56387	0.43006
2088.63530	0.42835
2086.70674	0.42670
2084.77817	0.42512
2082.84961	0.42343
2080.92104	0.42148
2078.99248	0.41941
2077.06392	0.41733
2075.13535	0.41529
2073.20679	0.41324
2071.27822	0.41111
2069.34966	0.40899
2067.42109	0.40686
2065.49253	0.40466
2063.56396	0.40236
2061.63540	0.40001
2059.70684	0.39761
2057.77827	0.39522
2055.84971	0.39290
2053.92114	0.39053
2051.99258	0.38797
2050.06401	0.38530
2048.13545	0.38266
2046.20688	0.38009
2044.27832	0.37755
2042.34976	0.37493
2040.42119	0.37225
2038.49263	0.36962
2036.56406	0.36710
2034.63550	0.36459
2032.70693	0.36199
2030.77837	0.35928
2028.84980	0.35648
2026.92124	0.35374
2024.99268	0.35109
2023.06411	0.34837
2021.13555	0.34561
2019.20698	0.34292
2017.27842	0.34032
2015.34985	0.33774
2013.42129	0.33512
2011.49272	0.33237
2009.56416	0.32956
2007.63560	0.32679
2005.70703	0.32410
2003.77847	0.32146
2001.84990	0.31891
1999.92134	0.31640
1997.99277	0.31387
1996.06421	0.31141
1994.13564	0.30907
1992.20708	0.30669
1990.27852	0.30415
1988.34995	0.30164
1986.42139	0.29920
1984.49282	0.29685
1982.56426	0.29456
1980.63569	0.29229
1978.70713	0.29006
1976.77856	0.28783
1974.85000	0.28561
1972.92144	0.28350
1970.99287	0.28144
1969.06431	0.27933
1967.13574	0.27717
1965.20718	0.27502
1963.27861	0.27300
1961.35005	0.27112
1959.42148	0.26938
1957.49292	0.26770
1955.56436	0.26601
1953.63579	0.26442
1951.70723	0.26288
1949.77866	0.26120
1947.85010	0.25946
1945.92153	0.25782
1943.99297	0.25624
1942.06440	0.25464
1940.13584	0.25309
1938.20728	0.25164
1936.27871	0.25028
1934.35015	0.24902
1932.42158	0.24785
1930.49302	0.24671
1928.56445	0.24554
1926.63589	0.24437
1924.70732	0.24332
1922.77876	0.24241
1920.85020	0.24160
1918.92163	0.24075
1916.99307	0.23977
1915.06450	0.23880
1913.13594	0.23794
1911.20737	0.23727
1909.27881	0.23664
1907.35024	0.23590
1905.42168	0.23512
1903.49312	0.23445
1901.56455	0.23394
1899.63599	0.23351
1897.70742	0.23310
1895.77886	0.23268
1893.85029	0.23231
1891.92173	0.23190
1889.99316	0.23153
1888.06460	0.23123
1886.13604	0.23101
1884.20747	0.23086
1882.27891	0.23066
1880.35034	0.23045
1878.42178	0.23036
1876.49321	0.23041
1874.56465	0.23044
1872.63608	0.23045
1870.70752	0.23042
1868.77896	0.23055
1866.85039	0.23082
1864.92183	0.23104
1862.99326	0.23126
1861.06470	0.23146
1859.13613	0.23174
1857.20757	0.23215
1855.27900	0.23268
1853.35044	0.23310
1851.42187	0.23343
1849.49331	0.23381
1847.56475	0.23432
1845.63618	0.23499
1843.70762	0.23594
1841.77905	0.23687
1839.85049	0.23752
1837.92192	0.23833
1835.99336	0.23924
1834.06479	0.24010
1832.13623	0.24088
1830.20767	0.24193
1828.27910	0.24327
1826.35054	0.24444
1824.42197	0.24578
1822.49341	0.24723
1820.56484	0.24862
1818.63628	0.24996
1816.70771	0.25146
1814.77915	0.25295
1812.85059	0.25446
1810.92202	0.25626
1808.99346	0.25833
1807.06489	0.26048
1805.13633	0.26254
1803.20776	0.26465
1801.27920	0.26684
1799.35063	0.26934
1797.42207	0.27177
1795.49351	0.27418
1793.56494	0.27691
1791.63638	0.28042
1789.70781	0.28399
1787.77925	0.28673
1785.85068	0.28985
1783.92212	0.29350
1781.99355	0.29728
1780.06499	0.30115
1778.13643	0.30520
1776.20786	0.30904
1774.27930	0.31302
1772.35073	0.31844
1770.42217	0.32479
1768.49360	0.33043
1766.56504	0.33574
1764.63647	0.34099
1762.70791	0.34660
1760.77935	0.35387
1758.85078	0.36081
1756.92222	0.36774
1754.99365	0.37543
1753.06509	0.38233
1751.13652	0.39012
1749.20796	0.40000
1747.27939	0.41028
1745.35083	0.41960
1743.42227	0.42932
1741.49370	0.43965
1739.56514	0.45171
1737.63657	0.46405
1735.70801	0.47477
1733.77944	0.49056
1731.85088	0.50987
1729.92231	0.52552
1727.99375	0.54133
1726.06519	0.55815
1724.13662	0.57631
1722.20806	0.59588
1720.27949	0.61365
1718.35093	0.63396
1716.42236	0.66484
1714.49380	0.69556
1712.56523	0.72058
1710.63667	0.74429
1708.70811	0.76946
1706.77954	0.79806
1704.85098	0.83281
1702.92241	0.86414
1700.99385	0.89457
1699.06528	0.93975
1697.13672	0.98218
1695.20815	1.02728
1693.27959	1.07198
1691.35103	1.10779
1689.42246	1.14842
1687.49390	1.19142
1685.56533	1.23303
1683.63677	1.29738
1681.70820	1.36521
1679.77964	1.40933
1677.85107	1.45110
1675.92251	1.49861
1673.99395	1.55714
1672.06538	1.60949
1670.13682	1.66158
1668.20825	1.73034
1666.27969	1.78682
1664.35112	1.83493
1662.42256	1.89696
1660.49399	1.96818
1658.56543	2.02390
1656.63687	2.06850
1654.70830	2.10798
1652.77974	2.16665
1650.85117	2.22293
1648.92261	2.24402
1646.99404	2.26865
1645.06548	2.29309
1643.13691	2.30884
1641.20835	2.31885
1639.27979	2.32843
1637.35122	2.33176
1635.42266	2.32437
1633.49409	2.31313
1631.56553	2.29991
1629.63696	2.28151
1627.70840	2.25095
1625.77983	2.21704
1623.85127	2.17430
1621.92271	2.12079
1619.99414	2.07349
1618.06558	2.02778
1616.13701	1.96204
1614.20845	1.89483
1612.27988	1.84349
1610.35132	1.78950
1608.42275	1.73099
1606.49419	1.67411
1604.56562	1.62215
1602.63706	1.57215
1600.70850	1.52403
1598.77993	1.48044
1596.85137	1.43945
1594.92280	1.39927
1592.99424	1.36044
1591.06567	1.32562
1589.13711	1.29382
1587.20854	1.26406
1585.27998	1.23654
1583.35142	1.21146
1581.42285	1.18874
1579.49429	1.16924
1577.56572	1.15224
1575.63716	1.13288
1573.70859	1.11652
1571.78003	1.10604
1569.85146	1.09549
1567.92290	1.08434
1565.99434	1.07663
1564.06577	1.07164
1562.13721	1.06833
1560.20864	1.06717
1558.28008	1.06999
1556.35151	1.07439
1554.42295	1.07691
1552.49438	1.07904
1550.56582	1.07948
1548.63726	1.07762
1546.70869	1.07329
1544.78013	1.06510
1542.85156	1.05265
1540.92300	1.03397
1538.99443	1.00540
1537.06587	0.98475
1535.13730	0.97043
1533.20874	0.95084
1531.28018	0.92982
1529.35161	0.91462
1527.42305	0.89999
1525.49448	0.88455
1523.56592	0.87156
1521.63735	0.85957
1519.70879	0.84773
1517.78022	0.83767
1515.85166	0.82606
1513.92310	0.81394
1511.99453	0.80317
1510.06597	0.79296
1508.13740	0.78250
1506.20884	0.76695
1504.28027	0.75462
1502.35171	0.74790
1500.42314	0.74163
1498.49458	0.73477
1496.56602	0.72703
1494.63745	0.71955
1492.70889	0.71366
1490.78032	0.70812
1488.85176	0.70158
1486.92319	0.69573
1484.99463	0.69141
1483.06606	0.68806
1481.13750	0.68526
1479.20894	0.68293
1477.28037	0.68136
1475.35181	0.68056
1473.42324	0.68031
1471.49468	0.67981
1469.56611	0.67871
1467.63755	0.67707
1465.70898	0.67528
1463.78042	0.67410
1461.85186	0.67368
1459.92329	0.67352
1457.99473	0.67348
1456.06616	0.67316
1454.13760	0.67183
1452.20903	0.67004
1450.28047	0.66797
1448.35190	0.66562
1446.42334	0.66307
1444.49478	0.66066
1442.56621	0.65838
1440.63765	0.65597
1438.70908	0.65331
1436.78052	0.64990
1434.85195	0.64613
1432.92339	0.64320
1430.99482	0.64111
1429.06626	0.64002
1427.13770	0.63998
1425.20913	0.64055
1423.28057	0.64128
1421.35200	0.64162
1419.42344	0.64167
1417.49487	0.64167
1415.56631	0.64115
1413.63774	0.64058
1411.70918	0.64068
1409.78062	0.64166
1407.85205	0.64313
1405.92349	0.64483
1403.99492	0.64639
1402.06636	0.64695
1400.13779	0.64647
1398.20923	0.64499
1396.28066	0.64250
1394.35210	0.63908
1392.42354	0.63511
1390.49497	0.63115
1388.56641	0.62698
1386.63784	0.62213
1384.70928	0.61705
1382.78071	0.61222
1380.85215	0.60774
1378.92358	0.60399
1376.99502	0.60104
1375.06646	0.59875
1373.13789	0.59734
1371.20933	0.59663
1369.28076	0.59580
1367.35220	0.59443
1365.42363	0.59278
1363.49507	0.59114
1361.56650	0.58967
1359.63794	0.58840
1357.70937	0.58725
1355.78081	0.58630
1353.85225	0.58555
1351.92368	0.58477
1349.99512	0.58392
1348.06655	0.58299
1346.13799	0.58199
1344.20942	0.58109
1342.28086	0.58028
1340.35229	0.57956
1338.42373	0.57895
1336.49517	0.57851
1334.56660	0.57825
1332.63804	0.57817
1330.70947	0.57836
1328.78091	0.57882
1326.85234	0.57942
1324.92378	0.58006
1322.99521	0.58076
1321.06665	0.58146
1319.13809	0.58205
1317.20952	0.58238
1315.28096	0.58242
1313.35239	0.58219
1311.42383	0.58175
1309.49526	0.58122
1307.56670	0.58075
1305.63813	0.58032
1303.70957	0.57983
1301.78101	0.57929
1299.85244	0.57867
1297.92388	0.57787
1295.99531	0.57684
1294.06675	0.57562
1292.13818	0.57428
1290.20962	0.57303
1288.28105	0.57193
1286.35249	0.57076
1284.42393	0.56941
1282.49536	0.56806
1280.56680	0.56688
1278.63823	0.56568
1276.70967	0.56436
1274.78110	0.56312
1272.85254	0.56217
1270.92397	0.56155
1268.99541	0.56103
1267.06685	0.56027
1265.13828	0.55929
1263.20972	0.55843
1261.28115	0.55762
1259.35259	0.55675
1257.42402	0.55607
1255.49546	0.55581
1253.56689	0.55583
1251.63833	0.55587
1249.70977	0.55591
1247.78120	0.55595
1245.85264	0.55584
1243.92407	0.55542
1241.99551	0.55465
1240.06694	0.55347
1238.13838	0.55176
1236.20981	0.54957
1234.28125	0.54720
1232.35269	0.54495
1230.42412	0.54295
1228.49556	0.54105
1226.56699	0.53904
1224.63843	0.53707
1222.70986	0.53538
1220.78130	0.53393
1218.85273	0.53260
1216.92417	0.53128
1214.99561	0.53003
1213.06704	0.52911
1211.13848	0.52846
1209.20991	0.52786
1207.28135	0.52721
1205.35278	0.52639
1203.42422	0.52541
1201.49565	0.52444
1199.56709	0.52359
1197.63853	0.52285
1195.70996	0.52212
1193.78140	0.52148
1191.85283	0.52097
1189.92427	0.52047
1187.99570	0.51997
1186.06714	0.51976
1184.13857	0.51997
1182.21001	0.52046
1180.28145	0.52130
1178.35288	0.52261
1176.42432	0.52393
1174.49575	0.52495
1172.56719	0.52572
1170.63862	0.52607
1168.71006	0.52595
1166.78149	0.52578
1164.85293	0.52572
1162.92437	0.52547
1160.99580	0.52502
1159.06724	0.52458
1157.13867	0.52413
1155.21011	0.52352
1153.28154	0.52257
1151.35298	0.52112
1149.42441	0.51915
1147.49585	0.51677
1145.56729	0.51405
1143.63872	0.51134
1141.71016	0.50913
1139.78159	0.50736
1137.85303	0.50574
1135.92446	0.50464
1133.99590	0.50423
1132.06733	0.50395
1130.13877	0.50360
1128.21021	0.50327
1126.28164	0.50277
1124.35308	0.50210
1122.42451	0.50155
1120.49595	0.50141
1118.56738	0.50170
1116.63882	0.50219
1114.71025	0.50264
1112.78169	0.50305
1110.85312	0.50353
1108.92456	0.50428
1106.99600	0.50533
1105.06743	0.50652
1103.13887	0.50778
1101.21030	0.50906
1099.28174	0.51051
1097.35317	0.51256
1095.42461	0.51529
1093.49604	0.51870
1091.56748	0.52305
1089.63892	0.52838
1087.71035	0.53472
1085.78179	0.54196
1083.85322	0.54954
1081.92466	0.55670
1079.99609	0.56231
1078.06753	0.56530
1076.13896	0.56535
1074.21040	0.56259
1072.28184	0.55758
1070.35327	0.55125
1068.42471	0.54441
1066.49614	0.53762
1064.56758	0.53125
1062.63901	0.52541
1060.71045	0.52026
1058.78188	0.51603
1056.85332	0.51241
1054.92476	0.50891
1052.99619	0.50565
1051.06763	0.50296
1049.13906	0.50087
1047.21050	0.49940
1045.28193	0.49836
1043.35337	0.49737
1041.42480	0.49657
1039.49624	0.49610
1037.56768	0.49566
1035.63911	0.49540
1033.71055	0.49524
1031.78198	0.49454
1029.85342	0.49323
1027.92485	0.49178
1025.99629	0.49060
1024.06772	0.48984
1022.13916	0.48947
1020.21060	0.48939
1018.28203	0.48948
1016.35347	0.48982
1014.42490	0.49039
1012.49634	0.49081
1010.56777	0.49113
1008.63921	0.49162
1006.71064	0.49240
1004.78208	0.49360
1002.85352	0.49536
1000.92495	0.49778
998.99639	0.50080
997.06782	0.50452
995.13926	0.50890
993.21069	0.51326
991.28213	0.51675
989.35356	0.51907
987.42500	0.52031
985.49644	0.52063
983.56787	0.52061
981.63931	0.52101
979.71074	0.52195
977.78218	0.52318
975.85361	0.52479
973.92505	0.52703
971.99648	0.52977
970.06792	0.53279
968.13936	0.53628
966.21079	0.54030
964.28223	0.54449
962.35366	0.54886
960.42510	0.55377
958.49653	0.55915
956.56797	0.56475
954.63940	0.57054
952.71084	0.57666
950.78228	0.58321
948.85371	0.58966
946.92515	0.59562
944.99658	0.60167
943.06802	0.60819
941.13945	0.61434
939.21089	0.61988
937.28232	0.62570
935.35376	0.63179
933.42520	0.63748
931.49663	0.64249
929.56807	0.64751
927.63950	0.65347
925.71094	0.65961
923.78237	0.66515
921.85381	0.67073
919.92524	0.67699
917.99668	0.68353
916.06812	0.68989
914.13955	0.69693
912.21099	0.70522
910.28242	0.71388
908.35386	0.72201
906.42529	0.72979
904.49673	0.73787
902.56816	0.74658
900.63960	0.75589
898.71104	0.76558
896.78247	0.77541
894.85391	0.78515
892.92534	0.79455
890.99678	0.80401
889.06821	0.81457
887.13965	0.82585
885.21108	0.83646
883.28252	0.84701
881.35396	0.85913
879.42539	0.87227
877.49683	0.88423
875.56826	0.89399
873.63970	0.90283
871.71113	0.91366
869.78257	0.92674
867.85400	0.93912
865.92544	0.94997
863.99687	0.96021
862.06831	0.97096
860.13975	0.98282
858.21118	0.99447
856.28262	1.00483
854.35405	1.01586
852.42549	1.02891
850.49692	1.04188
848.56836	1.05390
846.63979	1.06608
844.71123	1.07844
842.78267	1.09049
840.85410	1.10247
838.92554	1.11315
836.99697	1.12210
835.06841	1.13398
833.13984	1.15037
831.21128	1.16511
829.28271	1.17499
827.35415	1.18409
825.42559	1.19490
823.49702	1.20374
821.56846	1.21027
819.63989	1.22199
817.71133	1.23716
815.78276	1.24947
813.85420	1.26446
811.92563	1.28660
809.99707	1.30807
808.06851	1.31821
806.13994	1.32054
804.21138	1.32359
802.28281	1.31764
800.35425	1.30170
798.42568	1.31838
796.49712	1.37475
794.56855	1.40046
792.63999	1.39425
790.71143	1.41017
788.78286	1.43197
786.85430	1.43966
784.92573	1.46937
782.99717	1.48527
781.06860	1.46529
779.14004	1.46262
777.21147	1.47766
775.28291	1.42922
773.35435	1.34617
771.42578	1.28489
769.49722	1.22937
767.56865	1.20349
765.64009	1.22534
763.71152	1.21021
761.78296	1.17635
759.85439	1.22671
757.92583	1.27785
755.99727	1.25212
754.06870	1.21910
752.14014	1.11886
750.21157	0.99513
748.28301	0.92768
746.35444	0.90861
744.42588	0.93002
742.49731	0.93710
740.56875	0.83363
738.64019	0.71005
736.71162	0.63960
734.78306	0.57657
732.85449	0.49904
730.92593	0.46583
728.99736	0.45827
727.06880	0.38655
725.14023	0.23843
723.21167	0.06326
721.28311	-0.08478
719.35454	-0.14709
717.42598	-0.16939
715.49741	-0.20233
713.56885	-0.17074
711.64028	-0.14658
709.71172	-0.17785
707.78315	-0.18476
705.85459	-0.13244
703.92603	-0.06422
701.99746	-0.03270
700.06890	-0.02000
698.14033	0.04336
696.21177	0.07914
694.28320	0.02453
692.35464	-0.02360
690.42607	0.01268
688.49751	0.04112
686.56895	0.04019
684.64038	0.08420
682.71182	0.12949
680.78325	0.09334
678.85469	0.02636
676.92612	0.01279
674.99756	0.02378
673.06899	-0.02909
671.14043	-0.04877
669.21187	0.05107
667.28330	0.16741
665.35474	0.19592
663.42617	0.15045
661.49761	0.09454
659.56904	0.07237
657.64048	0.03685
655.71191	-0.02779
653.78335	-0.02737
651.85479	0.05682
649.92622	0.06495
647.99766	-0.00820
646.06909	-0.02208
644.14053	0.02321
642.21196	0.03865
640.28340	0.02945
638.35483	0.06341
636.42627	0.12954
634.49771	0.09642
632.56914	0.01732
630.64058	-0.01642
628.71201	0.02198
626.78345	0.09656
624.85488	0.11799
622.92632	0.07859
620.99775	0.03944
619.06919	0.01828
617.14062	-0.01256
615.21206	-0.03448
613.28350	0.01549
611.35493	0.07002
609.42637	0.03598
607.49780	-0.00922
605.56924	-0.00954
603.64067	0.01752
601.71211	0.05432
599.78354	0.09139
597.85498	0.10942
595.92642	0.11572
593.99785	0.12654
592.06929	0.15542
590.14072	0.14645
588.21216	0.06702
586.28359	0.02012
584.35503	0.02410
582.42646	0.04483
580.49790	0.05742
578.56934	0.02654
576.64077	-0.02640
574.71221	-0.01773
572.78364	0.01724
570.85508	0.02689
568.92651	0.03797
566.99795	0.06866
565.06938	0.08919
563.14082	0.03862
561.21226	-0.04144
559.28369	-0.02348
557.35513	0.10289
555.42656	0.15411
553.49800	0.07680
551.56943	0.00446
549.64087	0.00290
547.71230	0.04599
545.78374	0.08534
543.85518	0.08741
541.92661	0.08552
539.99805	0.11844
538.06948	0.15473
536.14092	0.13062
534.21235	0.08663
532.28379	0.08171
530.35522	0.09278
528.42666	0.09242
526.49810	0.10815
524.56953	0.10734
522.64097	0.05110
520.71240	-0.00344
518.78384	0.01000
516.85527	0.04529
514.92671	0.05151
512.99814	0.04302
511.06958	0.02489
509.14102	0.01730
507.21245	0.03096
505.28389	0.04683
503.35532	0.03938
501.42676	0.02859
499.49819	0.03893
