3997.91411	0.06714
3995.98555	0.06696
3994.05698	0.06703
3992.12842	0.06740
3990.19985	0.06805
3988.27129	0.06890
3986.34272	0.06925
3984.41416	0.06891
3982.48560	0.06869
3980.55703	0.06885
3978.62847	0.06909
3976.69990	0.06936
3974.77134	0.06954
3972.84277	0.06958
3970.91421	0.06975
3968.98564	0.06998
3967.05708	0.07025
3965.12852	0.07056
3963.19995	0.07047
3961.27139	0.07040
3959.34282	0.07098
3957.41426	0.07153
3955.48569	0.07173
3953.55713	0.07202
3951.62856	0.07241
3949.70000	0.07273
3947.77144	0.07295
3945.84287	0.07298
3943.91431	0.07272
3941.98574	0.07247
3940.05718	0.07220
3938.12861	0.07176
3936.20005	0.07142
3934.27148	0.07145
3932.34292	0.07193
3930.41436	0.07234
3928.48579	0.07200
3926.55723	0.07155
3924.62866	0.07165
3922.70010	0.07200
3920.77153	0.07217
3918.84297	0.07218
3916.91440	0.07210
3914.98584	0.07179
3913.05728	0.07140
3911.12871	0.07108
3909.20015	0.07060
3907.27158	0.07032
3905.34302	0.07085
3903.41445	0.07188
3901.48589	0.07268
3899.55732	0.07316
3897.62876	0.07289
3895.70020	0.07193
3893.77163	0.07151
3891.84307	0.07242
3889.91450	0.07330
3887.98594	0.07276
3886.05737	0.07232
3884.12881	0.07240
3882.20024	0.07220
3880.27168	0.07247
3878.34312	0.07293
3876.41455	0.07279
3874.48599	0.07301
3872.55742	0.07399
3870.62886	0.07493
3868.70029	0.07527
3866.77173	0.07479
3864.84316	0.07451
3862.91460	0.07498
3860.98604	0.07546
3859.05747	0.07542
3857.12891	0.07511
3855.20034	0.07559
3853.27178	0.07825
3851.34321	0.08062
3849.41465	0.07949
3847.48608	0.07809
3845.55752	0.07755
3843.62896	0.07785
3841.70039	0.07890
3839.77183	0.08019
3837.84326	0.08144
3835.91470	0.08213
3833.98613	0.08252
3832.05757	0.08325
3830.12900	0.08369
3828.20044	0.08371
3826.27187	0.08421
3824.34331	0.08527
3822.41475	0.08650
3820.48618	0.08835
3818.55762	0.08970
3816.62905	0.09023
3814.70049	0.09082
3812.77192	0.09061
3810.84336	0.09039
3808.91479	0.09144
3806.98623	0.09372
3805.05767	0.09570
3803.12910	0.09660
3801.20054	0.09791
3799.27197	0.09933
3797.34341	0.09990
3795.41484	0.10053
3793.48628	0.10099
3791.55771	0.10143
3789.62915	0.10254
3787.70059	0.10418
3785.77202	0.10603
3783.84346	0.10780
3781.91489	0.10915
3779.98633	0.11036
3778.05776	0.11178
3776.12920	0.11317
3774.20063	0.11455
3772.27207	0.11610
3770.34351	0.11789
3768.41494	0.11989
3766.48638	0.12176
3764.55781	0.12386
3762.62925	0.12602
3760.70068	0.12819
3758.77212	0.13106
3756.84355	0.13386
3754.91499	0.13566
3752.98643	0.13782
3751.05786	0.14214
3749.12930	0.14801
3747.20073	0.15185
3745.27217	0.15462
3743.34360	0.15849
3741.41504	0.16220
3739.48647	0.16536
3737.55791	0.16967
3735.62935	0.17648
3733.70078	0.18496
3731.77222	0.19107
3729.84365	0.19504
3727.91509	0.19928
3725.98652	0.20487
3724.05796	0.21093
3722.12939	0.21621
3720.20083	0.22119
3718.27227	0.22633
3716.34370	0.23183
3714.41514	0.23823
3712.48657	0.24805
3710.55801	0.26378
3708.62944	0.27988
3706.70088	0.29155
3704.77231	0.30242
3702.84375	0.31535
3700.91519	0.33197
3698.98662	0.35037
3697.05806	0.36773
3695.12949	0.38556
3693.20093	0.40441
3691.27236	0.42518
3689.34380	0.45251
3687.41523	0.48644
3685.48667	0.51575
3683.55811	0.54085
3681.62954	0.56855
3679.70098	0.59998
3677.77241	0.63225
3675.84385	0.67024
3673.91528	0.72299
3671.98672	0.76710
3670.05815	0.80588
3668.12959	0.85876
3666.20103	0.90740
3664.27246	0.94808
3662.34390	0.99153
3660.41533	1.03844
3658.48677	1.08469
3656.55820	1.13393
3654.62964	1.18922
3652.70107	1.23578
3650.77251	1.27611
3648.84395	1.33185
3646.91538	1.40067
3644.98682	1.45184
3643.05825	1.49129
3641.12969	1.53160
3639.20112	1.57662
3637.27256	1.62251
3635.34399	1.66699
3633.41543	1.71084
3631.48687	1.75122
3629.55830	1.79198
3627.62974	1.84684
3625.70117	1.89931
3623.77261	1.93476
3621.84404	1.96779
3619.91548	2.00433
3617.98691	2.04822
3616.05835	2.09122
3614.12979	2.12703
3612.20122	2.16451
3610.27266	2.20375
3608.34409	2.24534
3606.41553	2.28962
3604.48696	2.33023
3602.55840	2.36664
3600.62983	2.40551
3598.70127	2.44747
3596.77271	2.48772
3594.84414	2.52747
3592.91558	2.56885
3590.98701	2.60795
3589.05845	2.64332
3587.12988	2.68538
3585.20132	2.73339
3583.27275	2.77404
3581.34419	2.81066
3579.41562	2.85070
3577.48706	2.89370
3575.55850	2.93634
3573.62993	2.97968
3571.70137	3.02163
3569.77280	3.06048
3567.84424	3.10143
3565.91567	3.15305
3563.98711	3.20466
3562.05854	3.24725
3560.12998	3.29026
3558.20142	3.33626
3556.27285	3.38179
3554.34429	3.42490
3552.41572	3.46911
3550.48716	3.51468
3548.55859	3.55812
3546.63003	3.60021
3544.70146	3.64651
3542.77290	3.69597
3540.84434	3.74223
3538.91577	3.78745
3536.98721	3.83417
3535.05864	3.88262
3533.13008	3.93212
3531.20151	3.98223
3529.27295	4.03193
3527.34438	4.08134
3525.41582	4.13013
3523.48726	4.17803
3521.55869	4.22866
3519.63013	4.27832
3517.70156	4.32157
3515.77300	4.36436
3513.84443	4.41326
3511.91587	4.46337
3509.98730	4.50863
3508.05874	4.55128
3506.13018	4.59627
3504.20161	4.64589
3502.27305	4.70055
3500.34448	4.75284
3498.41592	4.79895
3496.48735	4.84769
3494.55879	4.89893
3492.63022	4.94571
3490.70166	4.99084
3488.77310	5.03984
3486.84453	5.09009
3484.91597	5.13675
3482.98740	5.17797
3481.05884	5.21734
3479.13027	5.26292
3477.20171	5.31497
3475.27314	5.36782
3473.34458	5.42104
3471.41602	5.47113
3469.48745	5.51356
3467.55889	5.55622
3465.63032	5.60480
3463.70176	5.65923
3461.77319	5.71389
3459.84463	5.76039
3457.91606	5.80120
3455.98750	5.84724
3454.05894	5.89987
3452.13037	5.94759
3450.20181	5.98518
3448.27324	6.01582
3446.34468	6.05665
3444.41611	6.12163
3442.48755	6.19650
3440.55898	6.26178
3438.63042	6.31080
3436.70186	6.34240
3434.77329	6.36709
3432.84473	6.39412
3430.91616	6.42903
3428.98760	6.48727
3427.05903	6.55949
3425.13047	6.62067
3423.20190	6.66523
3421.27334	6.72113
3419.34478	6.79624
3417.41621	6.85563
3415.48765	6.88671
3413.55908	6.91193
3411.63052	6.96296
3409.70195	7.03096
3407.77339	7.07779
3405.84482	7.10550
3403.91626	7.14823
3401.98770	7.17217
3400.05913	7.15846
3398.13057	7.15445
3396.20200	7.17288
3394.27344	7.22334
3392.34487	7.30094
3390.41631	7.36931
3388.48774	7.39504
3386.55918	7.40940
3384.63062	7.47157
3382.70205	7.58166
3380.77349	7.64787
3378.84492	7.61889
3376.91636	7.58151
3374.98779	7.61565
3373.05923	7.73065
3371.13066	7.79627
3369.20210	7.74879
3367.27354	7.70622
3365.34497	7.72285
3363.41641	7.78483
3361.48784	7.85120
3359.55928	7.86872
3357.63071	7.85617
3355.70215	7.86170
3353.77358	7.85783
3351.84502	7.85922
3349.91646	7.87274
3347.98789	7.86040
3346.05933	7.86004
3344.13076	7.90823
3342.20220	7.94611
3340.27363	7.90876
3338.34507	7.87379
3336.41650	7.93612
3334.48794	8.06472
3332.55937	8.13009
3330.63081	8.07201
3328.70225	7.95419
3326.77368	7.88599
3324.84512	7.88701
3322.91655	7.91057
3320.98799	7.95031
3319.05942	7.97094
3317.13086	7.99688
3315.20229	8.02418
3313.27373	8.01573
3311.34517	8.06328
3309.41660	8.16374
3307.48804	8.18768
3305.55947	8.11477
3303.63091	7.99901
3301.70234	7.91975
3299.77378	7.93539
3297.84521	7.99891
3295.91665	8.09215
3293.98809	8.18912
3292.05952	8.21532
3290.13096	8.17592
3288.20239	8.11926
3286.27383	8.11155
3284.34526	8.15693
3282.41670	8.18446
3280.48813	8.16260
3278.55957	8.10154
3276.63101	8.02668
3274.70244	8.00560
3272.77388	8.04685
3270.84531	8.11228
3268.91675	8.18424
3266.98818	8.21911
3265.05962	8.18266
3263.13105	8.14386
3261.20249	8.15440
3259.27393	8.13733
3257.34536	8.10997
3255.41680	8.13855
3253.48823	8.19639
3251.55967	8.22041
3249.63110	8.17529
3247.70254	8.10884
3245.77397	8.06565
3243.84541	8.03266
3241.91685	8.02112
3239.98828	8.08420
3238.05972	8.15654
3236.13115	8.13554
3234.20259	8.02335
3232.27402	7.92058
3230.34546	7.91438
3228.41689	7.94705
3226.48833	7.96603
3224.55977	7.97348
3222.63120	7.96784
3220.70264	7.94808
3218.77407	7.91666
3216.84551	7.90589
3214.91694	7.95469
3212.98838	8.03331
3211.05981	7.99824
3209.13125	7.84021
3207.20269	7.70644
3205.27412	7.64927
3203.34556	7.64475
3201.41699	7.67384
3199.48843	7.71127
3197.55986	7.69286
3195.63130	7.61439
3193.70273	7.58050
3191.77417	7.59080
3189.84561	7.55073
3187.91704	7.47752
3185.98848	7.41306
3184.05991	7.34035
3182.13135	7.24900
3180.20278	7.17464
3178.27422	7.13297
3176.34565	7.08731
3174.41709	7.02858
3172.48853	6.95908
3170.55996	6.88872
3168.63140	6.84013
3166.70283	6.79189
3164.77427	6.74017
3162.84570	6.69226
3160.91714	6.62435
3158.98857	6.55318
3157.06001	6.48543
3155.13145	6.40927
3153.20288	6.34355
3151.27432	6.28676
3149.34575	6.22230
3147.41719	6.14859
3145.48862	6.07073
3143.56006	5.99554
3141.63149	5.93295
3139.70293	5.87822
3137.77437	5.81324
3135.84580	5.73949
3133.91724	5.67070
3131.98867	5.60691
3130.06011	5.54162
3128.13154	5.47920
3126.20298	5.41723
3124.27441	5.34355
3122.34585	5.26444
3120.41729	5.19463
3118.48872	5.13160
3116.56016	5.05912
3114.63159	4.97650
3112.70303	4.90176
3110.77446	4.83652
3108.84590	4.77094
3106.91733	4.70443
3104.98877	4.63801
3103.06021	4.57442
3101.13164	4.51330
3099.20308	4.44920
3097.27451	4.38517
3095.34595	4.32439
3093.41738	4.26333
3091.48882	4.20117
3089.56025	4.13839
3087.63169	4.07493
3085.70312	4.01161
3083.77456	3.94968
3081.84600	3.89046
3079.91743	3.83336
3077.98887	3.77684
3076.06030	3.71961
3074.13174	3.66225
3072.20317	3.60657
3070.27461	3.55206
3068.34604	3.49724
3066.41748	3.44123
3064.48892	3.38514
3062.56035	3.33051
3060.63179	3.27703
3058.70322	3.22471
3056.77466	3.17308
3054.84609	3.12131
3052.91753	3.07124
3050.98896	3.02322
3049.06040	2.97445
3047.13184	2.92465
3045.20327	2.87583
3043.27471	2.82754
3041.34614	2.77865
3039.41758	2.73082
3037.48901	2.68550
3035.56045	2.64191
3033.63188	2.59851
3031.70332	2.55456
3029.77476	2.51117
3027.84619	2.46860
3025.91763	2.42596
3023.98906	2.38386
3022.06050	2.34258
3020.13193	2.30132
3018.20337	2.26041
3016.27480	2.22052
3014.34624	2.18200
3012.41768	2.14492
3010.48911	2.10873
3008.56055	2.07303
3006.63198	2.03781
3004.70342	2.00294
3002.77485	1.96829
3000.84629	1.93414
2998.91772	1.90092
2996.98916	1.86867
2995.06060	1.83704
2993.13203	1.80646
2991.20347	1.77768
2989.27490	1.74957
2987.34634	1.72095
2985.41777	1.69269
2983.48921	1.66540
2981.56064	1.63888
2979.63208	1.61301
2977.70352	1.58780
2975.77495	1.56360
2973.84639	1.53997
2971.91782	1.51633
2969.98926	1.49316
2968.06069	1.47065
2966.13213	1.44829
2964.20356	1.42584
2962.27500	1.40337
2960.34644	1.38080
2958.41787	1.35781
2956.48931	1.33454
2954.56074	1.31127
2952.63218	1.28804
2950.70361	1.26509
2948.77505	1.24291
2946.84648	1.22148
2944.91792	1.20055
2942.98936	1.18028
2941.06079	1.16089
2939.13223	1.14192
2937.20366	1.12301
2935.27510	1.10410
2933.34653	1.08494
2931.41797	1.06561
2929.48940	1.04657
2927.56084	1.02798
2925.63228	1.00969
2923.70371	0.99163
2921.77515	0.97387
2919.84658	0.95613
2917.91802	0.93861
2915.98945	0.92173
2914.06089	0.90501
2912.13232	0.88819
2910.20376	0.87171
2908.27520	0.85570
2906.34663	0.84020
2904.41807	0.82535
2902.48950	0.81111
2900.56094	0.79727
2898.63237	0.78355
2896.70381	0.76996
2894.77524	0.75686
2892.84668	0.74457
2890.91812	0.73309
2888.98955	0.72202
2887.06099	0.71099
2885.13242	0.70029
2883.20386	0.69027
2881.27529	0.68079
2879.34673	0.67154
2877.41816	0.66213
2875.48960	0.65242
2873.56104	0.64256
2871.63247	0.63227
2869.70391	0.62123
2867.77534	0.60968
2865.84678	0.59797
2863.91821	0.58626
2861.98965	0.57474
2860.06108	0.56374
2858.13252	0.55328
2856.20396	0.54339
2854.27539	0.53417
2852.34683	0.52514
2850.41826	0.51586
2848.48970	0.50667
2846.56113	0.49816
2844.63257	0.49037
2842.70400	0.48324
2840.77544	0.47664
2838.84687	0.47010
2836.91831	0.46349
2834.98975	0.45719
2833.06118	0.45110
2831.13262	0.44486
2829.20405	0.43857
2827.27549	0.43241
2825.34692	0.42635
2823.41836	0.42025
2821.48979	0.41421
2819.56123	0.40842
2817.63267	0.40270
2815.70410	0.39690
2813.77554	0.39122
2811.84697	0.38584
2809.91841	0.38057
2807.98984	0.37511
2806.06128	0.36963
2804.13271	0.36436
2802.20415	0.35932
2800.27559	0.35443
2798.34702	0.34968
2796.41846	0.34480
2794.48989	0.33976
2792.56133	0.33488
2790.63276	0.33024
2788.70420	0.32577
2786.77563	0.32139
2784.84707	0.31701
2782.91851	0.31280
2780.98994	0.30877
2779.06138	0.30468
2777.13281	0.30050
2775.20425	0.29641
2773.27568	0.29255
2771.34712	0.28878
2769.41855	0.28497
2767.48999	0.28129
2765.56143	0.27783
2763.63286	0.27452
2761.70430	0.27122
2759.77573	0.26782
2757.84717	0.26434
2755.91860	0.26109
2753.99004	0.25809
2752.06147	0.25502
2750.13291	0.25183
2748.20435	0.24878
2746.27578	0.24604
2744.34722	0.24344
2742.41865	0.24081
2740.49009	0.23811
2738.56152	0.23540
2736.63296	0.23272
2734.70439	0.23008
2732.77583	0.22755
2730.84727	0.22522
2728.91870	0.22296
2726.99014	0.22062
2725.06157	0.21832
2723.13301	0.21618
2721.20444	0.21401
2719.27588	0.21182
2717.34731	0.20984
2715.41875	0.20797
2713.49019	0.20604
2711.56162	0.20419
2709.63306	0.20239
2707.70449	0.20054
2705.77593	0.19872
2703.84736	0.19713
2701.91880	0.19566
2699.99023	0.19411
2698.06167	0.19254
2696.13311	0.19096
2694.20454	0.18943
2692.27598	0.18814
2690.34741	0.18696
2688.41885	0.18565
2686.49028	0.18426
2684.56172	0.18295
2682.63315	0.18170
2680.70459	0.18050
2678.77603	0.17931
2676.84746	0.17810
2674.91890	0.17691
2672.99033	0.17574
2671.06177	0.17452
2669.13320	0.17338
2667.20464	0.17235
2665.27607	0.17127
2663.34751	0.17023
2661.41895	0.16932
2659.49038	0.16851
2657.56182	0.16780
2655.63325	0.16704
2653.70469	0.16614
2651.77612	0.16523
2649.84756	0.16446
2647.91899	0.16380
2645.99043	0.16321
2644.06187	0.16268
2642.13330	0.16214
2640.20474	0.16153
2638.27617	0.16099
2636.34761	0.16061
2634.41904	0.16020
2632.49048	0.15962
2630.56191	0.15905
2628.63335	0.15861
2626.70479	0.15811
2624.77622	0.15763
2622.84766	0.15735
2620.91909	0.15706
2618.99053	0.15666
2617.06196	0.15636
2615.13340	0.15622
2613.20483	0.15596
2611.27627	0.15559
2609.34771	0.15539
2607.41914	0.15533
2605.49058	0.15521
2603.56201	0.15496
2601.63345	0.15472
2599.70488	0.15458
2597.77632	0.15451
2595.84775	0.15459
2593.91919	0.15473
2591.99062	0.15474
2590.06206	0.15474
2588.13350	0.15474
2586.20493	0.15476
2584.27637	0.15490
2582.34780	0.15507
2580.41924	0.15532
2578.49067	0.15565
2576.56211	0.15582
2574.63354	0.15583
2572.70498	0.15597
2570.77642	0.15630
2568.84785	0.15660
2566.91929	0.15683
2564.99072	0.15714
2563.06216	0.15752
2561.13359	0.15792
2559.20503	0.15830
2557.27646	0.15861
2555.34790	0.15889
2553.41934	0.15930
2551.49077	0.15988
2549.56221	0.16047
2547.63364	0.16098
2545.70508	0.16155
2543.77651	0.16214
2541.84795	0.16268
2539.91938	0.16313
2537.99082	0.16358
2536.06226	0.16421
2534.13369	0.16484
2532.20513	0.16542
2530.27656	0.16609
2528.34800	0.16678
2526.41943	0.16746
2524.49087	0.16800
2522.56230	0.16849
2520.63374	0.16914
2518.70518	0.16968
2516.77661	0.17010
2514.84805	0.17081
2512.91948	0.17174
2510.99092	0.17249
2509.06235	0.17312
2507.13379	0.17385
2505.20522	0.17466
2503.27666	0.17554
2501.34810	0.17644
2499.41953	0.17729
2497.49097	0.17803
2495.56240	0.17860
2493.63384	0.17919
2491.70527	0.17996
2489.77671	0.18079
2487.84814	0.18163
2485.91958	0.18242
2483.99102	0.18311
2482.06245	0.18383
2480.13389	0.18457
2478.20532	0.18532
2476.27676	0.18620
2474.34819	0.18715
2472.41963	0.18805
2470.49106	0.18883
2468.56250	0.18958
2466.63394	0.19043
2464.70537	0.19139
2462.77681	0.19234
2460.84824	0.19318
2458.91968	0.19396
2456.99111	0.19477
2455.06255	0.19573
2453.13398	0.19686
2451.20542	0.19798
2449.27686	0.19887
2447.34829	0.19963
2445.41973	0.20047
2443.49116	0.20140
2441.56260	0.20229
2439.63403	0.20321
2437.70547	0.20415
2435.77690	0.20501
2433.84834	0.20581
2431.91978	0.20674
2429.99121	0.20788
2428.06265	0.20903
2426.13408	0.20995
2424.20552	0.21074
2422.27695	0.21167
2420.34839	0.21277
2418.41982	0.21394
2416.49126	0.21518
2414.56270	0.21638
2412.63413	0.21737
2410.70557	0.21833
2408.77700	0.21949
2406.84844	0.22076
2404.91987	0.22194
2402.99131	0.22302
2401.06274	0.22411
2399.13418	0.22530
2397.20562	0.22652
2395.27705	0.22769
2393.34849	0.22885
2391.41992	0.23009
2389.49136	0.23153
2387.56279	0.23354
2385.63423	0.23671
2383.70566	0.24151
2381.77710	0.24792
2379.84854	0.25567
2377.91997	0.26472
2375.99141	0.27541
2374.06284	0.28815
2372.13428	0.30284
2370.20571	0.31875
2368.27715	0.33513
2366.34858	0.35082
2364.42002	0.36362
2362.49146	0.37263
2360.56289	0.37892
2358.63433	0.38113
2356.70576	0.37608
2354.77720	0.36457
2352.84863	0.34959
2350.92007	0.33442
2348.99150	0.32547
2347.06294	0.32604
2345.13437	0.33661
2343.20581	0.35200
2341.27725	0.36103
2339.34868	0.36235
2337.42012	0.36093
2335.49155	0.35957
2333.56299	0.35819
2331.63442	0.35711
2329.70586	0.35633
2327.77729	0.35449
2325.84873	0.35141
2323.92017	0.34775
2321.99160	0.34325
2320.06304	0.33823
2318.13447	0.33352
2316.20591	0.32955
2314.27734	0.32681
2312.34878	0.32540
2310.42021	0.32452
2308.49165	0.32291
2306.56309	0.32045
2304.63452	0.31835
2302.70596	0.31755
2300.77739	0.31758
2298.84883	0.31762
2296.92026	0.31781
2294.99170	0.31829
2293.06313	0.31861
2291.13457	0.31861
2289.20601	0.31862
2287.27744	0.31888
2285.34888	0.31930
2283.42031	0.32005
2281.49175	0.32165
2279.56318	0.32404
2277.63462	0.32657
2275.70605	0.32888
2273.77749	0.33104
2271.84893	0.33315
2269.92036	0.33525
2267.99180	0.33724
2266.06323	0.33902
2264.13467	0.34071
2262.20610	0.34248
2260.27754	0.34435
2258.34897	0.34623
2256.42041	0.34803
2254.49185	0.34976
2252.56328	0.35150
2250.63472	0.35343
2248.70615	0.35550
2246.77759	0.35749
2244.84902	0.35937
2242.92046	0.36126
2240.99189	0.36327
2239.06333	0.36547
2237.13477	0.36776
2235.20620	0.36995
2233.27764	0.37204
2231.34907	0.37409
2229.42051	0.37602
2227.49194	0.37798
2225.56338	0.38016
2223.63481	0.38247
2221.70625	0.38476
2219.77769	0.38705
2217.84912	0.38922
2215.92056	0.39123
2213.99199	0.39326
2212.06343	0.39536
2210.13486	0.39745
2208.20630	0.39952
2206.27773	0.40153
2204.34917	0.40346
2202.42061	0.40544
2200.49204	0.40758
2198.56348	0.40974
2196.63491	0.41164
2194.70635	0.41345
2192.77778	0.41542
2190.84922	0.41739
2188.92065	0.41915
2186.99209	0.42082
2185.06353	0.42255
2183.13496	0.42438
2181.20640	0.42622
2179.27783	0.42786
2177.34927	0.42937
2175.42070	0.43091
2173.49214	0.43242
2171.56357	0.43381
2169.63501	0.43514
2167.70645	0.43646
2165.77788	0.43776
2163.84932	0.43902
2161.92075	0.44009
2159.99219	0.44100
2158.06362	0.44201
2156.13506	0.44313
2154.20649	0.44408
2152.27793	0.44490
2150.34937	0.44568
2148.42080	0.44633
2146.49224	0.44692
2144.56367	0.44756
2142.63511	0.44817
2140.70654	0.44859
2138.77798	0.44871
2136.84941	0.44878
2134.92085	0.44898
2132.99229	0.44912
2131.06372	0.44906
2129.13516	0.44898
2127.20659	0.44892
2125.27803	0.44868
2123.34946	0.44823
2121.42090	0.44774
2119.49233	0.44726
2117.56377	0.44671
2115.63521	0.44600
2113.70664	0.44515
2111.77808	0.44431
2109.84951	0.44352
2107.92095	0.44266
2105.99238	0.44160
2104.06382	0.44037
2102.13525	0.43905
2100.20669	0.43777
2098.27812	0.43658
2096.34956	0.43541
2094.42100	0.43404
2092.49243	0.43243
2090.56387	0.43082
2088.63530	0.42932
2086.70674	0.42770
2084.77817	0.42585
2082.84961	0.42394
2080.92104	0.42204
2078.99248	0.42015
2077.06392	0.41823
2075.13535	0.41624
2073.20679	0.41419
2071.27822	0.41209
2069.34966	0.40987
2067.42109	0.40759
2065.49253	0.40541
2063.56396	0.40322
2061.63540	0.40089
2059.70684	0.39844
2057.77827	0.39598
2055.84971	0.39345
2053.92114	0.39085
2051.99258	0.38833
2050.06401	0.38586
2048.13545	0.38336
2046.20688	0.38084
2044.27832	0.37827
2042.34976	0.37560
2040.42119	0.37288
2038.49263	0.37019
2036.56406	0.36750
2034.63550	0.36483
2032.70693	0.36222
2030.77837	0.35967
2028.84980	0.35704
2026.92124	0.35426
2024.99268	0.35138
2023.06411	0.34851
2021.13555	0.34579
2019.20698	0.34323
2017.27842	0.34068
2015.34985	0.33792
2013.42129	0.33505
2011.49272	0.33237
2009.56416	0.32991
2007.63560	0.32740
2005.70703	0.32466
2003.77847	0.32184
2001.84990	0.31917
1999.92134	0.31664
1997.99277	0.31422
1996.06421	0.31180
1994.13564	0.30936
1992.20708	0.30688
1990.27852	0.30433
1988.34995	0.30182
1986.42139	0.29936
1984.49282	0.29696
1982.56426	0.29464
1980.63569	0.29228
1978.70713	0.29001
1976.77856	0.28788
1974.85000	0.28573
1972.92144	0.28350
1970.99287	0.28140
1969.06431	0.27956
1967.13574	0.27777
1965.20718	0.27576
1963.27861	0.27367
1961.35005	0.27171
1959.42148	0.26984
1957.49292	0.26797
1955.56436	0.26614
1953.63579	0.26440
1951.70723	0.26267
1949.77866	0.26101
1947.85010	0.25947
1945.92153	0.25803
1943.99297	0.25672
1942.06440	0.25537
1940.13584	0.25379
1938.20728	0.25216
1936.27871	0.25070
1934.35015	0.24936
1932.42158	0.24815
1930.49302	0.24703
1928.56445	0.24593
1926.63589	0.24477
1924.70732	0.24375
1922.77876	0.24291
1920.85020	0.24204
1918.92163	0.24118
1916.99307	0.24021
1915.06450	0.23909
1913.13594	0.23818
1911.20737	0.23755
1909.27881	0.23692
1907.35024	0.23621
1905.42168	0.23547
1903.49312	0.23478
1901.56455	0.23418
1899.63599	0.23359
1897.70742	0.23312
1895.77886	0.23282
1893.85029	0.23263
1891.92173	0.23239
1889.99316	0.23215
1888.06460	0.23188
1886.13604	0.23158
1884.20747	0.23129
1882.27891	0.23105
1880.35034	0.23089
1878.42178	0.23077
1876.49321	0.23074
1874.56465	0.23075
1872.63608	0.23084
1870.70752	0.23111
1868.77896	0.23166
1866.85039	0.23189
1864.92183	0.23160
1862.99326	0.23147
1861.06470	0.23169
1859.13613	0.23209
1857.20757	0.23246
1855.27900	0.23292
1853.35044	0.23343
1851.42187	0.23397
1849.49331	0.23458
1847.56475	0.23527
1845.63618	0.23612
1843.70762	0.23713
1841.77905	0.23783
1839.85049	0.23812
1837.92192	0.23873
1835.99336	0.23961
1834.06479	0.24057
1832.13623	0.24159
1830.20767	0.24304
1828.27910	0.24457
1826.35054	0.24562
1824.42197	0.24677
1822.49341	0.24787
1820.56484	0.24894
1818.63628	0.25026
1816.70771	0.25195
1814.77915	0.25364
1812.85059	0.25540
1810.92202	0.25743
1808.99346	0.25943
1807.06489	0.26130
1805.13633	0.26316
1803.20776	0.26529
1801.27920	0.26776
1799.35063	0.27059
1797.42207	0.27313
1795.49351	0.27549
1793.56494	0.27832
1791.63638	0.28198
1789.70781	0.28523
1787.77925	0.28758
1785.85068	0.29055
1783.92212	0.29415
1781.99355	0.29797
1780.06499	0.30205
1778.13643	0.30627
1776.20786	0.31017
1774.27930	0.31435
1772.35073	0.32008
1770.42217	0.32642
1768.49360	0.33177
1766.56504	0.33674
1764.63647	0.34181
1762.70791	0.34754
1760.77935	0.35488
1758.85078	0.36174
1756.92222	0.36870
1754.99365	0.37637
1753.06509	0.38327
1751.13652	0.39146
1749.20796	0.40198
1747.27939	0.41237
1745.35083	0.42141
1743.42227	0.43093
1741.49370	0.44133
1739.56514	0.45355
1737.63657	0.46587
1735.70801	0.47678
1733.77944	0.49309
1731.85088	0.51233
1729.92231	0.52733
1727.99375	0.54257
1726.06519	0.55911
1724.13662	0.57721
1722.20806	0.59674
1720.27949	0.61477
1718.35093	0.63581
1716.42236	0.66718
1714.49380	0.69741
1712.56523	0.72186
1710.63667	0.74550
1708.70811	0.77106
1706.77954	0.80028
1704.85098	0.83551
1702.92241	0.86705
1700.99385	0.89821
1699.06528	0.94482
1697.13672	0.98826
1695.20815	1.03379
1693.27959	1.07853
1691.35103	1.11478
1689.42246	1.15681
1687.49390	1.20127
1685.56533	1.24396
1683.63677	1.31066
1681.70820	1.38059
1679.77964	1.42511
1677.85107	1.46784
1675.92251	1.51746
1673.99395	1.57863
1672.06538	1.63322
1670.13682	1.68750
1668.20825	1.75880
1666.27969	1.81759
1664.35112	1.86866
1662.42256	1.93495
1660.49399	2.01085
1658.56543	2.06994
1656.63687	2.11719
1654.70830	2.15948
1652.77974	2.22044
1650.85117	2.27561
1648.92261	2.29601
1646.99404	2.32275
1645.06548	2.34881
1643.13691	2.36294
1641.20835	2.36901
1639.27979	2.37399
1637.35122	2.37538
1635.42266	2.37097
1633.49409	2.36060
1631.56553	2.34478
1629.63696	2.32524
1627.70840	2.29303
1625.77983	2.25479
1623.85127	2.20861
1621.92271	2.15449
1619.99414	2.10617
1618.06558	2.05788
1616.13701	1.98924
1614.20845	1.92012
1612.27988	1.86802
1610.35132	1.81404
1608.42275	1.75512
1606.49419	1.69690
1604.56562	1.64350
1602.63706	1.59259
1600.70850	1.54390
1598.77993	1.49968
1596.85137	1.45837
1594.92280	1.41825
1592.99424	1.37954
1591.06567	1.34456
1589.13711	1.31255
1587.20854	1.28326
1585.27998	1.25654
1583.35142	1.23179
1581.42285	1.20942
1579.49429	1.19095
1577.56572	1.17546
1575.63716	1.15764
1573.70859	1.14248
1571.78003	1.13320
1569.85146	1.12442
1567.92290	1.11550
1565.99434	1.10982
1564.06577	1.10692
1562.13721	1.10580
1560.20864	1.10768
1558.28008	1.11724
1556.35151	1.12634
1554.42295	1.13060
1552.49438	1.13499
1550.56582	1.13778
1548.63726	1.13765
1546.70869	1.13434
1544.78013	1.12712
1542.85156	1.11514
1540.92300	1.09471
1538.99443	1.06179
1537.06587	1.03772
1535.13730	1.02121
1533.20874	0.99905
1531.28018	0.97517
1529.35161	0.95772
1527.42305	0.94127
1525.49448	0.92421
1523.56592	0.90980
1521.63735	0.89641
1519.70879	0.88322
1517.78022	0.87215
1515.85166	0.85893
1513.92310	0.84453
1511.99453	0.83162
1510.06597	0.81983
1508.13740	0.80840
1506.20884	0.79126
1504.28027	0.77692
1502.35171	0.76904
1500.42314	0.76194
1498.49458	0.75402
1496.56602	0.74475
1494.63745	0.73581
1492.70889	0.72912
1490.78032	0.72335
1488.85176	0.71662
1486.92319	0.70997
1484.99463	0.70467
1483.06606	0.70076
1481.13750	0.69779
1479.20894	0.69571
1477.28037	0.69482
1475.35181	0.69509
1473.42324	0.69631
1471.49468	0.69693
1469.56611	0.69559
1467.63755	0.69351
1465.70898	0.69197
1463.78042	0.69125
1461.85186	0.69115
1459.92329	0.69175
1457.99473	0.69314
1456.06616	0.69387
1454.13760	0.69195
1452.20903	0.68921
1450.28047	0.68668
1448.35190	0.68439
1446.42334	0.68182
1444.49478	0.67915
1442.56621	0.67648
1440.63765	0.67367
1438.70908	0.67083
1436.78052	0.66720
1434.85195	0.66280
1432.92339	0.65949
1430.99482	0.65756
1429.06626	0.65664
1427.13770	0.65638
1425.20913	0.65685
1423.28057	0.65804
1421.35200	0.65917
1419.42344	0.66003
1417.49487	0.66043
1415.56631	0.65990
1413.63774	0.65939
1411.70918	0.65959
1409.78062	0.66071
1407.85205	0.66267
1405.92349	0.66525
1403.99492	0.66769
1402.06636	0.66887
1400.13779	0.66872
1398.20923	0.66735
1396.28066	0.66468
1394.35210	0.66059
1392.42354	0.65570
1390.49497	0.65097
1388.56641	0.64616
1386.63784	0.64058
1384.70928	0.63464
1382.78071	0.62904
1380.85215	0.62383
1378.92358	0.61933
1376.99502	0.61595
1375.06646	0.61362
1373.13789	0.61195
1371.20933	0.61080
1369.28076	0.61002
1367.35220	0.60907
1365.42363	0.60768
1363.49507	0.60604
1361.56650	0.60427
1359.63794	0.60254
1357.70937	0.60108
1355.78081	0.59982
1353.85225	0.59866
1351.92368	0.59770
1349.99512	0.59694
1348.06655	0.59619
1346.13799	0.59530
1344.20942	0.59437
1342.28086	0.59349
1340.35229	0.59285
1338.42373	0.59249
1336.49517	0.59224
1334.56660	0.59204
1332.63804	0.59195
1330.70947	0.59212
1328.78091	0.59264
1326.85234	0.59341
1324.92378	0.59434
1322.99521	0.59546
1321.06665	0.59663
1319.13809	0.59769
1317.20952	0.59842
1315.28096	0.59869
1313.35239	0.59856
1311.42383	0.59809
1309.49526	0.59745
1307.56670	0.59689
1305.63813	0.59650
1303.70957	0.59620
1301.78101	0.59570
1299.85244	0.59480
1297.92388	0.59380
1295.99531	0.59281
1294.06675	0.59162
1292.13818	0.59022
1290.20962	0.58877
1288.28105	0.58737
1286.35249	0.58605
1284.42393	0.58471
1282.49536	0.58313
1280.56680	0.58142
1278.63823	0.57985
1276.70967	0.57844
1274.78110	0.57716
1272.85254	0.57610
1270.92397	0.57518
1268.99541	0.57436
1267.06685	0.57361
1265.13828	0.57284
1263.20972	0.57206
1261.28115	0.57126
1259.35259	0.57037
1257.42402	0.56953
1255.49546	0.56897
1253.56689	0.56875
1251.63833	0.56877
1249.70977	0.56895
1247.78120	0.56918
1245.85264	0.56903
1243.92407	0.56827
1241.99551	0.56708
1240.06694	0.56550
1238.13838	0.56351
1236.20981	0.56116
1234.28125	0.55848
1232.35269	0.55571
1230.42412	0.55312
1228.49556	0.55077
1226.56699	0.54853
1224.63843	0.54636
1222.70986	0.54435
1220.78130	0.54259
1218.85273	0.54103
1216.92417	0.53964
1214.99561	0.53846
1213.06704	0.53740
1211.13848	0.53647
1209.20991	0.53574
1207.28135	0.53514
1205.35278	0.53443
1203.42422	0.53342
1201.49565	0.53227
1199.56709	0.53127
1197.63853	0.53042
1195.70996	0.52961
1193.78140	0.52885
1191.85283	0.52818
1189.92427	0.52775
1187.99570	0.52758
1186.06714	0.52750
1184.13857	0.52753
1182.21001	0.52786
1180.28145	0.52864
1178.35288	0.52995
1176.42432	0.53165
1174.49575	0.53320
1172.56719	0.53413
1170.63862	0.53445
1168.71006	0.53449
1166.78149	0.53447
1164.85293	0.53447
1162.92437	0.53447
1160.99580	0.53443
1159.06724	0.53436
1157.13867	0.53412
1155.21011	0.53339
1153.28154	0.53200
1151.35298	0.53009
1149.42441	0.52765
1147.49585	0.52492
1145.56729	0.52234
1143.63872	0.52004
1141.71016	0.51787
1139.78159	0.51592
1137.85303	0.51450
1135.92446	0.51377
1133.99590	0.51356
1132.06733	0.51369
1130.13877	0.51394
1128.21021	0.51390
1126.28164	0.51354
1124.35308	0.51325
1122.42451	0.51328
1120.49595	0.51348
1118.56738	0.51378
1116.63882	0.51426
1114.71025	0.51484
1112.78169	0.51543
1110.85312	0.51614
1108.92456	0.51701
1106.99600	0.51801
1105.06743	0.51908
1103.13887	0.52015
1101.21030	0.52131
1099.28174	0.52277
1097.35317	0.52457
1095.42461	0.52700
1093.49604	0.53037
1091.56748	0.53489
1089.63892	0.54092
1087.71035	0.54849
1085.78179	0.55694
1083.85322	0.56529
1081.92466	0.57260
1079.99609	0.57803
1078.06753	0.58077
1076.13896	0.58030
1074.21040	0.57674
1072.28184	0.57098
1070.35327	0.56395
1068.42471	0.55627
1066.49614	0.54887
1064.56758	0.54262
1062.63901	0.53725
1060.71045	0.53238
1058.78188	0.52814
1056.85332	0.52433
1054.92476	0.52085
1052.99619	0.51788
1051.06763	0.51543
1049.13906	0.51362
1047.21050	0.51232
1045.28193	0.51139
1043.35337	0.51091
1041.42480	0.51078
1039.49624	0.51073
1037.56768	0.51057
1035.63911	0.51017
1033.71055	0.50950
1031.78198	0.50853
1029.85342	0.50706
1027.92485	0.50522
1025.99629	0.50360
1024.06772	0.50250
1022.13916	0.50163
1020.21060	0.50089
1018.28203	0.50054
1016.35347	0.50048
1014.42490	0.50032
1012.49634	0.49996
1010.56777	0.49957
1008.63921	0.49946
1006.71064	0.49982
1004.78208	0.50069
1002.85352	0.50220
1000.92495	0.50455
998.99639	0.50783
997.06782	0.51188
995.13926	0.51635
993.21069	0.52069
991.28213	0.52411
989.35356	0.52614
987.42500	0.52690
985.49644	0.52680
983.56787	0.52646
981.63931	0.52649
979.71074	0.52704
977.78218	0.52814
975.85361	0.52991
973.92505	0.53240
971.99648	0.53528
970.06792	0.53824
968.13936	0.54138
966.21079	0.54502
964.28223	0.54937
962.35366	0.55399
960.42510	0.55848
958.49653	0.56326
956.56797	0.56866
954.63940	0.57465
952.71084	0.58116
950.78228	0.58776
948.85371	0.59421
946.92515	0.60048
944.99658	0.60624
943.06802	0.61172
941.13945	0.61764
939.21089	0.62389
937.28232	0.63014
935.35376	0.63625
933.42520	0.64196
931.49663	0.64716
929.56807	0.65226
927.63950	0.65779
925.71094	0.66379
923.78237	0.66992
921.85381	0.67594
919.92524	0.68193
917.99668	0.68806
916.06812	0.69476
914.13955	0.70245
912.21099	0.71057
910.28242	0.71886
908.35386	0.72782
906.42529	0.73692
904.49673	0.74522
902.56816	0.75303
900.63960	0.76144
898.71104	0.77110
896.78247	0.78166
894.85391	0.79214
892.92534	0.80267
890.99678	0.81295
889.06821	0.82226
887.13965	0.83162
885.21108	0.84180
883.28252	0.85259
881.35396	0.86450
879.42539	0.87731
877.49683	0.88867
875.56826	0.89814
873.63970	0.90826
871.71113	0.92022
869.78257	0.93263
867.85400	0.94495
865.92544	0.95767
863.99687	0.96920
862.06831	0.97869
860.13975	0.98766
858.21118	0.99812
856.28262	1.01070
854.35405	1.02399
852.42549	1.03708
850.49692	1.05004
848.56836	1.06179
846.63979	1.07133
844.71123	1.08096
842.78267	1.09168
840.85410	1.10158
838.92554	1.11248
836.99697	1.12676
835.06841	1.14145
833.13984	1.15414
831.21128	1.16623
829.28271	1.17762
827.35415	1.18419
825.42559	1.18475
823.49702	1.18779
821.56846	1.20068
819.63989	1.22230
817.71133	1.24463
815.78276	1.26129
813.85420	1.27678
811.92563	1.29060
809.99707	1.29515
808.06851	1.29214
806.13994	1.28800
804.21138	1.29260
802.28281	1.31526
800.35425	1.33911
798.42568	1.33565
796.49712	1.32623
794.56855	1.35058
792.63999	1.37771
790.71143	1.36845
788.78286	1.39115
786.85430	1.45978
784.92573	1.48278
782.99717	1.46533
781.06860	1.47156
779.14004	1.50222
777.21147	1.52870
775.28291	1.52480
773.35435	1.53601
771.42578	1.58276
769.49722	1.52104
767.56865	1.35407
765.64009	1.23916
763.71152	1.25559
761.78296	1.40704
759.85439	1.47097
757.92583	1.35550
755.99727	1.29609
754.06870	1.28634
752.14014	1.23374
750.21157	1.16233
748.28301	1.12430
746.35444	1.09399
744.42588	1.09434
742.49731	1.14501
740.56875	1.17068
738.64019	1.26350
736.71162	1.63979
734.78306	1.14761
732.85449	0.73910
730.92593	0.59097
728.99736	0.59853
727.06880	0.67846
725.14023	0.72975
723.21167	0.74983
721.28311	0.61743
719.35454	0.43316
717.42598	0.31503
715.49741	0.23262
713.56885	0.08042
711.64028	-0.14993
709.71172	-0.24515
707.78315	-0.12014
705.85459	-0.02760
703.92603	-0.01460
701.99746	-0.00013
700.06890	0.05226
698.14033	0.13549
696.21177	0.29654
694.28320	0.47713
692.35464	0.44976
690.42607	0.42499
688.49751	0.43010
686.56895	0.34571
684.64038	0.26120
682.71182	0.25414
680.78325	0.32571
678.85469	0.50257
676.92612	0.56288
674.99756	0.43900
673.06899	0.44822
671.14043	0.66375
669.21187	0.79384
667.28330	0.63037
665.35474	0.39538
663.42617	0.24329
661.49761	0.26229
659.56904	0.40075
657.64048	0.48761
655.71191	0.50986
653.78335	0.61538
651.85479	0.54723
649.92622	0.32674
647.99766	0.18795
646.06909	0.13546
644.14053	0.15622
642.21196	0.31066
640.28340	0.51317
638.35483	0.46797
636.42627	0.32580
634.49771	0.28257
632.56914	0.29352
630.64058	0.34741
628.71201	0.32335
626.78345	0.26628
624.85488	0.31677
622.92632	0.41735
620.99775	0.35358
619.06919	0.30063
617.14062	0.32227
615.21206	0.27652
613.28350	0.21992
611.35493	0.23616
609.42637	0.26404
607.49780	0.32020
605.56924	0.50898
603.64067	0.57219
601.71211	0.40316
599.78354	0.33560
597.85498	0.40591
595.92642	0.75972
593.99785	3.56399
592.06929	0.86946
590.14072	0.35118
588.21216	0.23939
586.28359	0.25374
584.35503	0.28853
582.42646	0.29508
580.49790	0.27953
578.56934	0.34776
576.64077	0.56748
574.71221	0.67026
572.78364	0.40222
570.85508	0.27454
568.92651	0.32301
566.99795	0.37826
565.06938	0.32799
563.14082	0.28976
561.21226	0.31421
559.28369	0.34564
557.35513	0.33402
555.42656	0.29341
553.49800	0.24430
551.56943	0.24142
549.64087	0.29227
547.71230	0.28193
545.78374	0.23618
543.85518	0.29901
541.92661	0.40877
539.99805	0.32892
538.06948	0.25136
536.14092	0.27031
534.21235	0.30574
532.28379	0.32527
530.35522	0.37677
528.42666	0.44391
526.49810	0.37804
524.56953	0.26050
522.64097	0.19288
520.71240	0.16941
518.78384	0.19487
516.85527	0.29664
514.92671	0.46784
512.99814	0.44009
511.06958	0.31890
509.14102	0.30514
507.21245	0.33941
505.28389	0.35329
503.35532	0.35146
501.42676	0.34120
499.49819	0.31960
