3997.91411	0.06769
3995.98555	0.06833
3994.05698	0.06887
3992.12842	0.06923
3990.19985	0.06956
3988.27129	0.06950
3986.34272	0.06934
3984.41416	0.06971
3982.48560	0.07016
3980.55703	0.07034
3978.62847	0.07063
3976.69990	0.07125
3974.77134	0.07208
3972.84277	0.07276
3970.91421	0.07294
3968.98564	0.07246
3967.05708	0.07153
3965.12852	0.07106
3963.19995	0.07180
3961.27139	0.07313
3959.34282	0.07374
3957.41426	0.07340
3955.48569	0.07292
3953.55713	0.07302
3951.62856	0.07391
3949.70000	0.07515
3947.77144	0.07599
3945.84287	0.07600
3943.91431	0.07602
3941.98574	0.07610
3940.05718	0.07490
3938.12861	0.07321
3936.20005	0.07252
3934.27148	0.07329
3932.34292	0.07543
3930.41436	0.07706
3928.48579	0.07633
3926.55723	0.07512
3924.62866	0.07554
3922.70010	0.07609
3920.77153	0.07562
3918.84297	0.07599
3916.91440	0.07694
3914.98584	0.07605
3913.05728	0.07376
3911.12871	0.07209
3909.20015	0.07184
3907.27158	0.07374
3905.34302	0.07813
3903.41445	0.08310
3901.48589	0.08506
3899.55732	0.08398
3897.62876	0.08128
3895.70020	0.07802
3893.77163	0.07677
3891.84307	0.07830
3889.91450	0.07931
3887.98594	0.07814
3886.05737	0.07810
3884.12881	0.07958
3882.20024	0.08078
3880.27168	0.08163
3878.34312	0.08049
3876.41455	0.07854
3874.48599	0.07947
3872.55742	0.08252
3870.62886	0.08523
3868.70029	0.08616
3866.77173	0.08481
3864.84316	0.08457
3862.91460	0.08541
3860.98604	0.08387
3859.05747	0.08188
3857.12891	0.08273
3855.20034	0.08708
3853.27178	0.09408
3851.34321	0.09580
3849.41465	0.08975
3847.48608	0.08477
3845.55752	0.08353
3843.62896	0.08594
3841.70039	0.09029
3839.77183	0.09486
3837.84326	0.09829
3835.91470	0.09801
3833.98613	0.09527
3832.05757	0.09302
3830.12900	0.09136
3828.20044	0.09041
3826.27187	0.09116
3824.34331	0.09324
3822.41475	0.09691
3820.48618	0.10234
3818.55762	0.10386
3816.62905	0.10176
3814.70049	0.09946
3812.77192	0.09618
3810.84336	0.09414
3808.91479	0.09540
3806.98623	0.09955
3805.05767	0.10335
3803.12910	0.10630
3801.20054	0.11106
3799.27197	0.11302
3797.34341	0.11070
3795.41484	0.10861
3793.48628	0.10642
3791.55771	0.10469
3789.62915	0.10469
3787.70059	0.10633
3785.77202	0.10932
3783.84346	0.11224
3781.91489	0.11385
3779.98633	0.11588
3778.05776	0.11810
3776.12920	0.11793
3774.20063	0.11755
3772.27207	0.11975
3770.34351	0.12438
3768.41494	0.12880
3766.48638	0.13090
3764.55781	0.13206
3762.62925	0.13320
3760.70068	0.13599
3758.77212	0.14096
3756.84355	0.14464
3754.91499	0.14662
3752.98643	0.15129
3751.05786	0.16074
3749.12930	0.16867
3747.20073	0.16901
3745.27217	0.16933
3743.34360	0.17270
3741.41504	0.17509
3739.48647	0.17740
3737.55791	0.18309
3735.62935	0.19325
3733.70078	0.20296
3731.77222	0.20508
3729.84365	0.20432
3727.91509	0.20653
3725.98652	0.21266
3724.05796	0.22014
3722.12939	0.22635
3720.20083	0.23134
3718.27227	0.23550
3716.34370	0.23982
3714.41514	0.24628
3712.48657	0.25866
3710.55801	0.27798
3708.62944	0.29326
3706.70088	0.30100
3704.77231	0.30981
3702.84375	0.32316
3700.91519	0.34078
3698.98662	0.35888
3697.05806	0.37563
3695.12949	0.39400
3693.20093	0.41509
3691.27236	0.44034
3689.34380	0.47241
3687.41523	0.50594
3685.48667	0.53185
3683.55811	0.55514
3681.62954	0.58243
3679.70098	0.61524
3677.77241	0.65198
3675.84385	0.69646
3673.91528	0.75162
3671.98672	0.79290
3670.05815	0.83084
3668.12959	0.88330
3666.20103	0.92833
3664.27246	0.96565
3662.34390	1.00794
3660.41533	1.05558
3658.48677	1.10372
3656.55820	1.15510
3654.62964	1.21158
3652.70107	1.25958
3650.77251	1.30442
3648.84395	1.36688
3646.91538	1.43592
3644.98682	1.48041
3643.05825	1.51494
3641.12969	1.55283
3639.20112	1.59545
3637.27256	1.63886
3635.34399	1.68253
3633.41543	1.72773
3631.48687	1.77094
3629.55830	1.81556
3627.62974	1.87166
3625.70117	1.91908
3623.77261	1.94976
3621.84404	1.98212
3619.91548	2.02164
3617.98691	2.06791
3616.05835	2.11050
3614.12979	2.14681
3612.20122	2.18529
3610.27266	2.22279
3608.34409	2.26144
3606.41553	2.30356
3604.48696	2.34056
3602.55840	2.37328
3600.62983	2.41159
3598.70127	2.45431
3596.77271	2.49509
3594.84414	2.53653
3592.91558	2.57842
3590.98701	2.61604
3589.05845	2.65236
3587.12988	2.69824
3585.20132	2.74671
3583.27275	2.78479
3581.34419	2.82062
3579.41562	2.85999
3577.48706	2.90107
3575.55850	2.94149
3573.62993	2.98142
3571.70137	3.02072
3569.77280	3.06165
3567.84424	3.10945
3565.91567	3.16701
3563.98711	3.21625
3562.05854	3.25246
3560.12998	3.29008
3558.20142	3.33213
3556.27285	3.37614
3554.34429	3.42159
3552.41572	3.46971
3550.48716	3.51573
3548.55859	3.55856
3546.63003	3.60513
3544.70146	3.65656
3542.77290	3.70489
3540.84434	3.74778
3538.91577	3.79081
3536.98721	3.83698
3535.05864	3.88691
3533.13008	3.93749
3531.20151	3.98806
3529.27295	4.03986
3527.34438	4.09055
3525.41582	4.13606
3523.48726	4.18090
3521.55869	4.23151
3519.63013	4.28154
3517.70156	4.32655
3515.77300	4.36957
3513.84443	4.41324
3511.91587	4.45784
3509.98730	4.50560
3508.05874	4.55665
3506.13018	4.60606
3504.20161	4.65605
3502.27305	4.70926
3500.34448	4.76025
3498.41592	4.80802
3496.48735	4.85242
3494.55879	4.89512
3492.63022	4.94623
3490.70166	5.00145
3488.77310	5.04685
3486.84453	5.08679
3484.91597	5.13399
3482.98740	5.18636
3481.05884	5.23705
3479.13027	5.28603
3477.20171	5.33816
3475.27314	5.39520
3473.34458	5.45006
3471.41602	5.49842
3469.48745	5.54277
3467.55889	5.58726
3465.63032	5.63244
3463.70176	5.68026
3461.77319	5.73041
3459.84463	5.77442
3457.91606	5.81941
3455.98750	5.88164
3454.05894	5.94682
3452.13037	5.99846
3450.20181	6.05025
3448.27324	6.10405
3446.34468	6.14968
3444.41611	6.19162
3442.48755	6.23612
3440.55898	6.27070
3438.63042	6.30009
3436.70186	6.35298
3434.77329	6.42150
3432.84473	6.47570
3430.91616	6.52158
3428.98760	6.57812
3427.05903	6.64606
3425.13047	6.72572
3423.20190	6.80393
3421.27334	6.85944
3419.34478	6.87985
3417.41621	6.89676
3415.48765	6.95272
3413.55908	7.04206
3411.63052	7.12476
3409.70195	7.16375
3407.77339	7.19621
3405.84482	7.24831
3403.91626	7.30004
3401.98770	7.32967
3400.05913	7.34168
3398.13057	7.38716
3396.20200	7.46181
3394.27344	7.48793
3392.34487	7.46341
3390.41631	7.47799
3388.48774	7.53223
3386.55918	7.57089
3384.63062	7.58408
3382.70205	7.61643
3380.77349	7.67090
3378.84492	7.69886
3376.91636	7.73336
3374.98779	7.78659
3373.05923	7.82171
3371.13066	7.81653
3369.20210	7.82091
3367.27354	7.88594
3365.34497	7.92496
3363.41641	7.89155
3361.48784	7.89965
3359.55928	7.97518
3357.63071	8.01701
3355.70215	7.98712
3353.77358	7.95743
3351.84502	8.01958
3349.91646	8.12844
3347.98789	8.18891
3346.05933	8.17945
3344.13076	8.15953
3342.20220	8.18307
3340.27363	8.17448
3338.34507	8.14726
3336.41650	8.17564
3334.48794	8.22703
3332.55937	8.25181
3330.63081	8.25406
3328.70225	8.22127
3326.77368	8.18186
3324.84512	8.18998
3322.91655	8.21516
3320.98799	8.23254
3319.05942	8.24441
3317.13086	8.28893
3315.20229	8.34989
3313.27373	8.33231
3311.34517	8.27113
3309.41660	8.27603
3307.48804	8.31170
3305.55947	8.31505
3303.63091	8.31120
3301.70234	8.30379
3299.77378	8.33301
3297.84521	8.40841
3295.91665	8.53435
3293.98809	8.64997
3292.05952	8.56952
3290.13096	8.41864
3288.20239	8.34626
3286.27383	8.27936
3284.34526	8.28504
3282.41670	8.41689
3280.48813	8.49410
3278.55957	8.43734
3276.63101	8.33974
3274.70244	8.29822
3272.77388	8.33130
3270.84531	8.35742
3268.91675	8.32840
3266.98818	8.28679
3265.05962	8.28486
3263.13105	8.30064
3261.20249	8.32089
3259.27393	8.32426
3257.34536	8.31742
3255.41680	8.37197
3253.48823	8.43683
3251.55967	8.41585
3249.63110	8.35762
3247.70254	8.28967
3245.77397	8.21314
3243.84541	8.18764
3241.91685	8.19209
3239.98828	8.20608
3238.05972	8.22437
3236.13115	8.18006
3234.20259	8.11661
3232.27402	8.11135
3230.34546	8.11512
3228.41689	8.09098
3226.48833	8.08365
3224.55977	8.11696
3222.63120	8.20256
3220.70264	8.32757
3218.77407	8.41257
3216.84551	8.33665
3214.91694	8.16131
3212.98838	8.09660
3211.05981	8.15344
3209.13125	8.18821
3207.20269	8.13546
3205.27412	8.00276
3203.34556	7.83853
3201.41699	7.72172
3199.48843	7.72349
3197.55986	7.80770
3195.63130	7.79349
3193.70273	7.66779
3191.77417	7.55177
3189.84561	7.46180
3187.91704	7.41405
3185.98848	7.42055
3184.05991	7.44732
3182.13135	7.44191
3180.20278	7.37923
3178.27422	7.28862
3176.34565	7.19310
3174.41709	7.10308
3172.48853	7.04473
3170.55996	7.01565
3168.63140	6.97117
3166.70283	6.89242
3164.77427	6.82011
3162.84570	6.76322
3160.91714	6.69320
3158.98857	6.62995
3157.06001	6.57135
3155.13145	6.48723
3153.20288	6.40812
3151.27432	6.36107
3149.34575	6.31128
3147.41719	6.23831
3145.48862	6.16191
3143.56006	6.08952
3141.63149	6.01888
3139.70293	5.93776
3137.77437	5.84332
3135.84580	5.75830
3133.91724	5.69211
3131.98867	5.63202
3130.06011	5.56440
3128.13154	5.48329
3126.20298	5.39819
3124.27441	5.32552
3122.34585	5.26040
3120.41729	5.19344
3118.48872	5.12611
3116.56016	5.05373
3114.63159	4.97581
3112.70303	4.90151
3110.77446	4.82939
3108.84590	4.75566
3106.91733	4.68629
3104.98877	4.62012
3103.06021	4.55140
3101.13164	4.47911
3099.20308	4.40580
3097.27451	4.33656
3095.34595	4.27102
3093.41738	4.20341
3091.48882	4.13363
3089.56025	4.06749
3087.63169	4.00505
3085.70312	3.94298
3083.77456	3.88058
3081.84600	3.81792
3079.91743	3.75572
3077.98887	3.69371
3076.06030	3.63214
3074.13174	3.57243
3072.20317	3.51339
3070.27461	3.45363
3068.34604	3.39395
3066.41748	3.33568
3064.48892	3.27882
3062.56035	3.22277
3060.63179	3.16766
3058.70322	3.11336
3056.77466	3.06017
3054.84609	3.00785
3052.91753	2.95515
3050.98896	2.90220
3049.06040	2.85003
3047.13184	2.79981
3045.20327	2.75187
3043.27471	2.70462
3041.34614	2.65606
3039.41758	2.60718
3037.48901	2.56020
3035.56045	2.51507
3033.63188	2.47058
3031.70332	2.42539
3029.77476	2.38057
3027.84619	2.33826
3025.91763	2.29724
3023.98906	2.25561
3022.06050	2.21367
3020.13193	2.17238
3018.20337	2.13238
3016.27480	2.09367
3014.34624	2.05583
3012.41768	2.01858
3010.48911	1.98140
3008.56055	1.94411
3006.63198	1.90751
3004.70342	1.87195
3002.77485	1.83698
3000.84629	1.80259
2998.91772	1.76921
2996.98916	1.73651
2995.06060	1.70401
2993.13203	1.67175
2991.20347	1.63991
2989.27490	1.60884
2987.34634	1.57891
2985.41777	1.54966
2983.48921	1.52024
2981.56064	1.49067
2979.63208	1.46186
2977.70352	1.43438
2975.77495	1.40757
2973.84639	1.38042
2971.91782	1.35292
2969.98926	1.32583
2968.06069	1.29965
2966.13213	1.27442
2964.20356	1.25000
2962.27500	1.22594
2960.34644	1.20215
2958.41787	1.17906
2956.48931	1.15678
2954.56074	1.13507
2952.63218	1.11337
2950.70361	1.09154
2948.77505	1.07006
2946.84648	1.04931
2944.91792	1.02916
2942.98936	1.00939
2941.06079	0.98967
2939.13223	0.96986
2937.20366	0.95047
2935.27510	0.93176
2933.34653	0.91362
2931.41797	0.89612
2929.48940	0.87916
2927.56084	0.86269
2925.63228	0.84655
2923.70371	0.83054
2921.77515	0.81480
2919.84658	0.79956
2917.91802	0.78460
2915.98945	0.76925
2914.06089	0.75389
2912.13232	0.73939
2910.20376	0.72548
2908.27520	0.71197
2906.34663	0.69905
2904.41807	0.68636
2902.48950	0.67370
2900.56094	0.66129
2898.63237	0.64950
2896.70381	0.63825
2894.77524	0.62694
2892.84668	0.61536
2890.91812	0.60387
2888.98955	0.59267
2887.06099	0.58182
2885.13242	0.57127
2883.20386	0.56093
2881.27529	0.55082
2879.34673	0.54092
2877.41816	0.53127
2875.48960	0.52189
2873.56104	0.51267
2871.63247	0.50352
2869.70391	0.49422
2867.77534	0.48482
2865.84678	0.47566
2863.91821	0.46694
2861.98965	0.45853
2860.06108	0.45033
2858.13252	0.44239
2856.20396	0.43468
2854.27539	0.42717
2852.34683	0.41981
2850.41826	0.41265
2848.48970	0.40571
2846.56113	0.39884
2844.63257	0.39214
2842.70400	0.38593
2840.77544	0.38012
2838.84687	0.37444
2836.91831	0.36893
2834.98975	0.36349
2833.06118	0.35810
2831.13262	0.35316
2829.20405	0.34842
2827.27549	0.34326
2825.34692	0.33774
2823.41836	0.33224
2821.48979	0.32693
2819.56123	0.32178
2817.63267	0.31672
2815.70410	0.31178
2813.77554	0.30703
2811.84697	0.30241
2809.91841	0.29779
2807.98984	0.29314
2806.06128	0.28868
2804.13271	0.28450
2802.20415	0.28037
2800.27559	0.27630
2798.34702	0.27230
2796.41846	0.26829
2794.48989	0.26434
2792.56133	0.26055
2790.63276	0.25693
2788.70420	0.25343
2786.77563	0.24979
2784.84707	0.24607
2782.91851	0.24260
2780.98994	0.23938
2779.06138	0.23618
2777.13281	0.23299
2775.20425	0.22990
2773.27568	0.22684
2771.34712	0.22368
2769.41855	0.22055
2767.48999	0.21763
2765.56143	0.21494
2763.63286	0.21229
2761.70430	0.20955
2759.77573	0.20685
2757.84717	0.20429
2755.91860	0.20181
2753.99004	0.19944
2752.06147	0.19705
2750.13291	0.19453
2748.20435	0.19202
2746.27578	0.18974
2744.34722	0.18782
2742.41865	0.18605
2740.49009	0.18402
2738.56152	0.18187
2736.63296	0.17980
2734.70439	0.17777
2732.77583	0.17590
2730.84727	0.17427
2728.91870	0.17260
2726.99014	0.17084
2725.06157	0.16914
2723.13301	0.16749
2721.20444	0.16573
2719.27588	0.16401
2717.34731	0.16253
2715.41875	0.16120
2713.49019	0.15982
2711.56162	0.15835
2709.63306	0.15688
2707.70449	0.15552
2705.77593	0.15418
2703.84736	0.15277
2701.91880	0.15139
2699.99023	0.15018
2698.06167	0.14915
2696.13311	0.14820
2694.20454	0.14709
2692.27598	0.14587
2690.34741	0.14483
2688.41885	0.14401
2686.49028	0.14322
2684.56172	0.14223
2682.63315	0.14109
2680.70459	0.14010
2678.77603	0.13940
2676.84746	0.13873
2674.91890	0.13786
2672.99033	0.13694
2671.06177	0.13622
2669.13320	0.13559
2667.20464	0.13495
2665.27607	0.13431
2663.34751	0.13364
2661.41895	0.13300
2659.49038	0.13252
2657.56182	0.13208
2655.63325	0.13169
2653.70469	0.13139
2651.77612	0.13095
2649.84756	0.13040
2647.91899	0.12986
2645.99043	0.12941
2644.06187	0.12912
2642.13330	0.12889
2640.20474	0.12860
2638.27617	0.12835
2636.34761	0.12820
2634.41904	0.12792
2632.49048	0.12745
2630.56191	0.12709
2628.63335	0.12701
2626.70479	0.12706
2624.77622	0.12705
2622.84766	0.12702
2620.91909	0.12706
2618.99053	0.12708
2617.06196	0.12695
2615.13340	0.12678
2613.20483	0.12675
2611.27627	0.12684
2609.34771	0.12687
2607.41914	0.12686
2605.49058	0.12695
2603.56201	0.12711
2601.63345	0.12721
2599.70488	0.12725
2597.77632	0.12738
2595.84775	0.12770
2593.91919	0.12805
2591.99062	0.12827
2590.06206	0.12844
2588.13350	0.12875
2586.20493	0.12921
2584.27637	0.12964
2582.34780	0.13002
2580.41924	0.13045
2578.49067	0.13091
2576.56211	0.13134
2574.63354	0.13175
2572.70498	0.13214
2570.77642	0.13244
2568.84785	0.13270
2566.91929	0.13310
2564.99072	0.13367
2563.06216	0.13428
2561.13359	0.13493
2559.20503	0.13558
2557.27646	0.13607
2555.34790	0.13651
2553.41934	0.13710
2551.49077	0.13771
2549.56221	0.13830
2547.63364	0.13897
2545.70508	0.13967
2543.77651	0.14033
2541.84795	0.14092
2539.91938	0.14147
2537.99082	0.14212
2536.06226	0.14294
2534.13369	0.14378
2532.20513	0.14452
2530.27656	0.14527
2528.34800	0.14606
2526.41943	0.14680
2524.49087	0.14748
2522.56230	0.14825
2520.63374	0.14918
2518.70518	0.15017
2516.77661	0.15099
2514.84805	0.15164
2512.91948	0.15237
2510.99092	0.15326
2509.06235	0.15409
2507.13379	0.15483
2505.20522	0.15566
2503.27666	0.15665
2501.34810	0.15764
2499.41953	0.15849
2497.49097	0.15931
2495.56240	0.16029
2493.63384	0.16128
2491.70527	0.16203
2489.77671	0.16273
2487.84814	0.16358
2485.91958	0.16450
2483.99102	0.16546
2482.06245	0.16654
2480.13389	0.16761
2478.20532	0.16854
2476.27676	0.16941
2474.34819	0.17036
2472.41963	0.17147
2470.49106	0.17256
2468.56250	0.17356
2466.63394	0.17455
2464.70537	0.17559
2462.77681	0.17661
2460.84824	0.17755
2458.91968	0.17849
2456.99111	0.17942
2455.06255	0.18034
2453.13398	0.18136
2451.20542	0.18245
2449.27686	0.18354
2447.34829	0.18459
2445.41973	0.18556
2443.49116	0.18653
2441.56260	0.18763
2439.63403	0.18885
2437.70547	0.18999
2435.77690	0.19103
2433.84834	0.19214
2431.91978	0.19329
2429.99121	0.19436
2428.06265	0.19538
2426.13408	0.19645
2424.20552	0.19754
2422.27695	0.19870
2420.34839	0.20004
2418.41982	0.20136
2416.49126	0.20255
2414.56270	0.20375
2412.63413	0.20496
2410.70557	0.20607
2408.77700	0.20711
2406.84844	0.20819
2404.91987	0.20943
2402.99131	0.21076
2401.06274	0.21207
2399.13418	0.21341
2397.20562	0.21480
2395.27705	0.21607
2393.34849	0.21720
2391.41992	0.21845
2389.49136	0.22006
2387.56279	0.22232
2385.63423	0.22563
2383.70566	0.23024
2381.77710	0.23616
2379.84854	0.24322
2377.91997	0.25135
2375.99141	0.26070
2374.06284	0.27151
2372.13428	0.28358
2370.20571	0.29663
2368.27715	0.31089
2366.34858	0.32605
2364.42002	0.33945
2362.49146	0.34814
2360.56289	0.35178
2358.63433	0.35202
2356.70576	0.34924
2354.77720	0.34084
2352.84863	0.32764
2350.92007	0.31411
2348.99150	0.30627
2347.06294	0.30679
2345.13437	0.31592
2343.20581	0.32924
2341.27725	0.33701
2339.34868	0.33806
2337.42012	0.33758
2335.49155	0.33761
2333.56299	0.33721
2331.63442	0.33636
2329.70586	0.33623
2327.77729	0.33650
2325.84873	0.33481
2323.92017	0.33079
2321.99160	0.32660
2320.06304	0.32347
2318.13447	0.32051
2316.20591	0.31749
2314.27734	0.31534
2312.34878	0.31426
2310.42021	0.31365
2308.49165	0.31275
2306.56309	0.31125
2304.63452	0.30971
2302.70596	0.30893
2300.77739	0.30900
2298.84883	0.30945
2296.92026	0.30996
2294.99170	0.31035
2293.06313	0.31066
2291.13457	0.31112
2289.20601	0.31171
2287.27744	0.31221
2285.34888	0.31275
2283.42031	0.31380
2281.49175	0.31563
2279.56318	0.31805
2277.63462	0.32056
2275.70605	0.32298
2273.77749	0.32519
2271.84893	0.32723
2269.92036	0.32928
2267.99180	0.33134
2266.06323	0.33332
2264.13467	0.33530
2262.20610	0.33729
2260.27754	0.33919
2258.34897	0.34103
2256.42041	0.34286
2254.49185	0.34470
2252.56328	0.34662
2250.63472	0.34861
2248.70615	0.35057
2246.77759	0.35263
2244.84902	0.35487
2242.92046	0.35704
2240.99189	0.35904
2239.06333	0.36110
2237.13477	0.36326
2235.20620	0.36539
2233.27764	0.36752
2231.34907	0.36971
2229.42051	0.37199
2227.49194	0.37435
2225.56338	0.37669
2223.63481	0.37901
2221.70625	0.38130
2219.77769	0.38358
2217.84912	0.38581
2215.92056	0.38798
2213.99199	0.39008
2212.06343	0.39209
2210.13486	0.39416
2208.20630	0.39644
2206.27773	0.39875
2204.34917	0.40086
2202.42061	0.40283
2200.49204	0.40488
2198.56348	0.40698
2196.63491	0.40900
2194.70635	0.41098
2192.77778	0.41306
2190.84922	0.41508
2188.92065	0.41694
2186.99209	0.41876
2185.06353	0.42058
2183.13496	0.42229
2181.20640	0.42380
2179.27783	0.42536
2177.34927	0.42714
2175.42070	0.42889
2173.49214	0.43051
2171.56357	0.43207
2169.63501	0.43348
2167.70645	0.43476
2165.77788	0.43611
2163.84932	0.43745
2161.92075	0.43864
2159.99219	0.43980
2158.06362	0.44101
2156.13506	0.44210
2154.20649	0.44300
2152.27793	0.44380
2150.34937	0.44452
2148.42080	0.44520
2146.49224	0.44593
2144.56367	0.44663
2142.63511	0.44719
2140.70654	0.44766
2138.77798	0.44812
2136.84941	0.44840
2134.92085	0.44850
2132.99229	0.44854
2131.06372	0.44857
2129.13516	0.44859
2127.20659	0.44849
2125.27803	0.44824
2123.34946	0.44780
2121.42090	0.44724
2119.49233	0.44668
2117.56377	0.44619
2115.63521	0.44571
2113.70664	0.44521
2111.77808	0.44459
2109.84951	0.44372
2107.92095	0.44273
2105.99238	0.44167
2104.06382	0.44049
2102.13525	0.43925
2100.20669	0.43806
2098.27812	0.43675
2096.34956	0.43531
2094.42100	0.43391
2092.49243	0.43254
2090.56387	0.43105
2088.63530	0.42945
2086.70674	0.42784
2084.77817	0.42608
2082.84961	0.42408
2080.92104	0.42210
2078.99248	0.42028
2077.06392	0.41844
2075.13535	0.41642
2073.20679	0.41430
2071.27822	0.41214
2069.34966	0.40993
2067.42109	0.40780
2065.49253	0.40582
2063.56396	0.40360
2061.63540	0.40103
2059.70684	0.39853
2057.77827	0.39619
2055.84971	0.39376
2053.92114	0.39122
2051.99258	0.38870
2050.06401	0.38619
2048.13545	0.38371
2046.20688	0.38122
2044.27832	0.37867
2042.34976	0.37604
2040.42119	0.37336
2038.49263	0.37068
2036.56406	0.36796
2034.63550	0.36525
2032.70693	0.36260
2030.77837	0.35999
2028.84980	0.35736
2026.92124	0.35470
2024.99268	0.35191
2023.06411	0.34911
2021.13555	0.34647
2019.20698	0.34403
2017.27842	0.34156
2015.34985	0.33873
2013.42129	0.33574
2011.49272	0.33294
2009.56416	0.33028
2007.63560	0.32758
2005.70703	0.32486
2003.77847	0.32212
2001.84990	0.31942
1999.92134	0.31687
1997.99277	0.31435
1996.06421	0.31186
1994.13564	0.30974
1992.20708	0.30780
1990.27852	0.30532
1988.34995	0.30248
1986.42139	0.29971
1984.49282	0.29706
1982.56426	0.29462
1980.63569	0.29233
1978.70713	0.29006
1976.77856	0.28778
1974.85000	0.28554
1972.92144	0.28337
1970.99287	0.28136
1969.06431	0.27965
1967.13574	0.27794
1965.20718	0.27575
1963.27861	0.27340
1961.35005	0.27128
1959.42148	0.26931
1957.49292	0.26746
1955.56436	0.26565
1953.63579	0.26379
1951.70723	0.26195
1949.77866	0.26033
1947.85010	0.25899
1945.92153	0.25793
1943.99297	0.25711
1942.06440	0.25598
1940.13584	0.25390
1938.20728	0.25161
1936.27871	0.24999
1934.35015	0.24878
1932.42158	0.24758
1930.49302	0.24633
1928.56445	0.24519
1926.63589	0.24424
1924.70732	0.24371
1922.77876	0.24333
1920.85020	0.24249
1918.92163	0.24155
1916.99307	0.24049
1915.06450	0.23896
1913.13594	0.23761
1911.20737	0.23699
1909.27881	0.23671
1907.35024	0.23607
1905.42168	0.23506
1903.49312	0.23417
1901.56455	0.23347
1899.63599	0.23295
1897.70742	0.23272
1895.77886	0.23265
1893.85029	0.23238
1891.92173	0.23209
1889.99316	0.23220
1888.06460	0.23189
1886.13604	0.23105
1884.20747	0.23046
1882.27891	0.23018
1880.35034	0.23001
1878.42178	0.22991
1876.49321	0.22981
1874.56465	0.22970
1872.63608	0.23002
1870.70752	0.23134
1868.77896	0.23339
1866.85039	0.23378
1864.92183	0.23225
1862.99326	0.23113
1861.06470	0.23106
1859.13613	0.23150
1857.20757	0.23184
1855.27900	0.23215
1853.35044	0.23255
1851.42187	0.23315
1849.49331	0.23412
1847.56475	0.23556
1845.63618	0.23741
1843.70762	0.23889
1841.77905	0.23870
1839.85049	0.23802
1837.92192	0.23848
1835.99336	0.23950
1834.06479	0.24039
1832.13623	0.24182
1830.20767	0.24438
1828.27910	0.24631
1826.35054	0.24685
1824.42197	0.24761
1822.49341	0.24826
1820.56484	0.24882
1818.63628	0.24993
1816.70771	0.25154
1814.77915	0.25326
1812.85059	0.25541
1810.92202	0.25801
1808.99346	0.26005
1807.06489	0.26144
1805.13633	0.26306
1803.20776	0.26569
1801.27920	0.26908
1799.35063	0.27225
1797.42207	0.27456
1795.49351	0.27705
1793.56494	0.28068
1791.63638	0.28490
1789.70781	0.28734
1787.77925	0.28856
1785.85068	0.29119
1783.92212	0.29514
1781.99355	0.29956
1780.06499	0.30396
1778.13643	0.30804
1776.20786	0.31215
1774.27930	0.31763
1772.35073	0.32523
1770.42217	0.33169
1768.49360	0.33549
1766.56504	0.33918
1764.63647	0.34386
1762.70791	0.35011
1760.77935	0.35808
1758.85078	0.36510
1756.92222	0.37213
1754.99365	0.37974
1753.06509	0.38704
1751.13652	0.39686
1749.20796	0.40914
1747.27939	0.41974
1745.35083	0.42809
1743.42227	0.43705
1741.49370	0.44732
1739.56514	0.45963
1737.63657	0.47204
1735.70801	0.48367
1733.77944	0.50162
1731.85088	0.52093
1729.92231	0.53455
1727.99375	0.54866
1726.06519	0.56466
1724.13662	0.58291
1722.20806	0.60294
1720.27949	0.62215
1718.35093	0.64590
1716.42236	0.67952
1714.49380	0.70837
1712.56523	0.73073
1710.63667	0.75331
1708.70811	0.77867
1706.77954	0.80825
1704.85098	0.84332
1702.92241	0.87407
1700.99385	0.90479
1699.06528	0.95058
1697.13672	0.99141
1695.20815	1.03087
1693.27959	1.06790
1691.35103	1.09835
1689.42246	1.13495
1687.49390	1.17387
1685.56533	1.21170
1683.63677	1.26892
1681.70820	1.32524
1679.77964	1.36010
1677.85107	1.39415
1675.92251	1.43420
1673.99395	1.48364
1672.06538	1.52750
1670.13682	1.57069
1668.20825	1.62457
1666.27969	1.66632
1664.35112	1.70162
1662.42256	1.74540
1660.49399	1.79311
1658.56543	1.83033
1656.63687	1.86189
1654.70830	1.89435
1652.77974	1.95119
1650.85117	2.00438
1648.92261	2.02529
1646.99404	2.05428
1645.06548	2.08683
1643.13691	2.10757
1641.20835	2.12189
1639.27979	2.13529
1637.35122	2.14543
1635.42266	2.15186
1633.49409	2.14929
1631.56553	2.13760
1629.63696	2.12333
1627.70840	2.10052
1625.77983	2.07320
1623.85127	2.03886
1621.92271	1.99501
1619.99414	1.95456
1618.06558	1.91639
1616.13701	1.86112
1614.20845	1.80140
1612.27988	1.75516
1610.35132	1.70766
1608.42275	1.65601
1606.49419	1.60426
1604.56562	1.55588
1602.63706	1.50876
1600.70850	1.46197
1598.77993	1.41835
1596.85137	1.37755
1594.92280	1.33823
1592.99424	1.29995
1591.06567	1.26436
1589.13711	1.23049
1587.20854	1.19850
1585.27998	1.16883
1583.35142	1.14086
1581.42285	1.11475
1579.49429	1.09234
1577.56572	1.07255
1575.63716	1.04666
1573.70859	1.02155
1571.78003	1.00527
1569.85146	0.98840
1567.92290	0.96764
1565.99434	0.95046
1564.06577	0.93619
1562.13721	0.92463
1560.20864	0.91614
1558.28008	0.90025
1556.35151	0.88132
1554.42295	0.86832
1552.49438	0.85626
1550.56582	0.84528
1548.63726	0.83492
1546.70869	0.82658
1544.78013	0.82028
1542.85156	0.81473
1540.92300	0.80820
1538.99443	0.79514
1537.06587	0.78291
1535.13730	0.77595
1533.20874	0.76901
1531.28018	0.76054
1529.35161	0.75412
1527.42305	0.74930
1525.49448	0.74461
1523.56592	0.74051
1521.63735	0.73604
1519.70879	0.72933
1517.78022	0.72313
1515.85166	0.71685
1513.92310	0.71033
1511.99453	0.70592
1510.06597	0.70402
1508.13740	0.70396
1506.20884	0.69923
1504.28027	0.68946
1502.35171	0.68352
1500.42314	0.68032
1498.49458	0.67825
1496.56602	0.67505
1494.63745	0.67030
1492.70889	0.66703
1490.78032	0.66595
1488.85176	0.66411
1486.92319	0.65934
1484.99463	0.65440
1483.06606	0.65087
1481.13750	0.64813
1479.20894	0.64557
1477.28037	0.64370
1475.35181	0.64264
1473.42324	0.64147
1471.49468	0.63776
1469.56611	0.63263
1467.63755	0.62918
1465.70898	0.62731
1463.78042	0.62508
1461.85186	0.62251
1459.92329	0.62185
1457.99473	0.62305
1456.06616	0.62121
1454.13760	0.61572
1452.20903	0.61184
1450.28047	0.60974
1448.35190	0.60844
1446.42334	0.60673
1444.49478	0.60459
1442.56621	0.60268
1440.63765	0.60124
1438.70908	0.60066
1436.78052	0.60048
1434.85195	0.59899
1432.92339	0.59693
1430.99482	0.59556
1429.06626	0.59407
1427.13770	0.59214
1425.20913	0.59084
1423.28057	0.59003
1421.35200	0.58920
1419.42344	0.58865
1417.49487	0.58708
1415.56631	0.58402
1413.63774	0.58140
1411.70918	0.57972
1409.78062	0.57839
1407.85205	0.57715
1405.92349	0.57628
1403.99492	0.57520
1402.06636	0.57382
1400.13779	0.57311
1398.20923	0.57285
1396.28066	0.57207
1394.35210	0.57037
1392.42354	0.56803
1390.49497	0.56627
1388.56641	0.56550
1386.63784	0.56461
1384.70928	0.56280
1382.78071	0.56108
1380.85215	0.56008
1378.92358	0.55941
1376.99502	0.55893
1375.06646	0.55874
1373.13789	0.55790
1371.20933	0.55630
1369.28076	0.55501
1367.35220	0.55390
1365.42363	0.55291
1363.49507	0.55255
1361.56650	0.55201
1359.63794	0.55056
1357.70937	0.54911
1355.78081	0.54802
1353.85225	0.54697
1351.92368	0.54596
1349.99512	0.54512
1348.06655	0.54426
1346.13799	0.54333
1344.20942	0.54256
1342.28086	0.54229
1340.35229	0.54249
1338.42373	0.54207
1336.49517	0.54048
1334.56660	0.53874
1332.63804	0.53744
1330.70947	0.53646
1328.78091	0.53564
1326.85234	0.53493
1324.92378	0.53427
1322.99521	0.53358
1321.06665	0.53295
1319.13809	0.53235
1317.20952	0.53146
1315.28096	0.53042
1313.35239	0.52955
1311.42383	0.52863
1309.49526	0.52756
1307.56670	0.52655
1305.63813	0.52561
1303.70957	0.52474
1301.78101	0.52393
1299.85244	0.52309
1297.92388	0.52220
1295.99531	0.52131
1294.06675	0.52053
1292.13818	0.51989
1290.20962	0.51928
1288.28105	0.51856
1286.35249	0.51773
1284.42393	0.51701
1282.49536	0.51639
1280.56680	0.51570
1278.63823	0.51494
1276.70967	0.51421
1274.78110	0.51357
1272.85254	0.51291
1270.92397	0.51218
1268.99541	0.51137
1267.06685	0.51052
1265.13828	0.50967
1263.20972	0.50883
1261.28115	0.50814
1259.35259	0.50759
1257.42402	0.50701
1255.49546	0.50636
1253.56689	0.50569
1251.63833	0.50504
1249.70977	0.50452
1247.78120	0.50409
1245.85264	0.50364
1243.92407	0.50308
1241.99551	0.50235
1240.06694	0.50145
1238.13838	0.50059
1236.20981	0.49992
1234.28125	0.49925
1232.35269	0.49838
1230.42412	0.49737
1228.49556	0.49645
1226.56699	0.49563
1224.63843	0.49479
1222.70986	0.49392
1220.78130	0.49307
1218.85273	0.49221
1216.92417	0.49136
1214.99561	0.49055
1213.06704	0.48976
1211.13848	0.48894
1209.20991	0.48796
1207.28135	0.48697
1205.35278	0.48619
1203.42422	0.48552
1201.49565	0.48471
1199.56709	0.48369
1197.63853	0.48264
1195.70996	0.48170
1193.78140	0.48086
1191.85283	0.47999
1189.92427	0.47908
1187.99570	0.47815
1186.06714	0.47725
1184.13857	0.47636
1182.21001	0.47537
1180.28145	0.47441
1178.35288	0.47363
1176.42432	0.47284
1174.49575	0.47191
1172.56719	0.47098
1170.63862	0.47009
1168.71006	0.46918
1166.78149	0.46833
1164.85293	0.46756
1162.92437	0.46680
1160.99580	0.46605
1159.06724	0.46526
1157.13867	0.46442
1155.21011	0.46357
1153.28154	0.46272
1151.35298	0.46189
1149.42441	0.46114
1147.49585	0.46046
1145.56729	0.45981
1143.63872	0.45907
1141.71016	0.45820
1139.78159	0.45730
1137.85303	0.45654
1135.92446	0.45588
1133.99590	0.45512
1132.06733	0.45421
1130.13877	0.45356
1128.21021	0.45323
1126.28164	0.45263
1124.35308	0.45176
1122.42451	0.45099
1120.49595	0.45039
1118.56738	0.45001
1116.63882	0.44971
1114.71025	0.44923
1112.78169	0.44871
1110.85312	0.44822
1108.92456	0.44765
1106.99600	0.44723
1105.06743	0.44691
1103.13887	0.44635
1101.21030	0.44579
1099.28174	0.44557
1097.35317	0.44546
1095.42461	0.44518
1093.49604	0.44487
1091.56748	0.44468
1089.63892	0.44449
1087.71035	0.44416
1085.78179	0.44372
1083.85322	0.44351
1081.92466	0.44363
1079.99609	0.44365
1078.06753	0.44329
1076.13896	0.44282
1074.21040	0.44248
1072.28184	0.44245
1070.35327	0.44284
1068.42471	0.44324
1066.49614	0.44334
1064.56758	0.44337
1062.63901	0.44359
1060.71045	0.44388
1058.78188	0.44410
1056.85332	0.44427
1054.92476	0.44456
1052.99619	0.44499
1051.06763	0.44528
1049.13906	0.44529
1047.21050	0.44539
1045.28193	0.44573
1043.35337	0.44625
1041.42480	0.44692
1039.49624	0.44744
1037.56768	0.44786
1035.63911	0.44861
1033.71055	0.44966
1031.78198	0.45058
1029.85342	0.45128
1027.92485	0.45201
1025.99629	0.45300
1024.06772	0.45423
1022.13916	0.45551
1020.21060	0.45678
1018.28203	0.45808
1016.35347	0.45943
1014.42490	0.46078
1012.49634	0.46213
1010.56777	0.46352
1008.63921	0.46495
1006.71064	0.46645
1004.78208	0.46804
1002.85352	0.46979
1000.92495	0.47173
998.99639	0.47364
997.06782	0.47544
995.13926	0.47738
993.21069	0.47967
991.28213	0.48213
989.35356	0.48451
987.42500	0.48671
985.49644	0.48899
983.56787	0.49158
981.63931	0.49429
979.71074	0.49705
977.78218	0.50010
975.85361	0.50352
973.92505	0.50702
971.99648	0.51037
970.06792	0.51361
968.13936	0.51697
966.21079	0.52054
964.28223	0.52429
962.35366	0.52834
960.42510	0.53253
958.49653	0.53661
956.56797	0.54083
954.63940	0.54536
952.71084	0.55005
950.78228	0.55460
948.85371	0.55909
946.92515	0.56411
944.99658	0.56962
943.06802	0.57524
941.13945	0.58085
939.21089	0.58631
937.28232	0.59206
935.35376	0.59837
933.42520	0.60486
931.49663	0.61161
929.56807	0.61888
927.63950	0.62633
925.71094	0.63319
923.78237	0.63943
921.85381	0.64605
919.92524	0.65379
917.99668	0.66248
916.06812	0.67125
914.13955	0.67953
912.21099	0.68754
910.28242	0.69563
908.35386	0.70422
906.42529	0.71337
904.49673	0.72252
902.56816	0.73182
900.63960	0.74158
898.71104	0.75144
896.78247	0.76081
894.85391	0.76957
892.92534	0.77900
890.99678	0.78984
889.06821	0.80103
887.13965	0.81197
885.21108	0.82287
883.28252	0.83285
881.35396	0.84245
879.42539	0.85354
877.49683	0.86514
875.56826	0.87697
873.63970	0.88947
871.71113	0.90090
869.78257	0.91138
867.85400	0.92232
865.92544	0.93361
863.99687	0.94516
862.06831	0.95639
860.13975	0.96685
858.21118	0.97824
856.28262	0.99033
854.35405	1.00157
852.42549	1.01309
850.49692	1.02574
848.56836	1.03851
846.63979	1.05050
844.71123	1.06109
842.78267	1.07056
840.85410	1.07975
838.92554	1.08967
836.99697	1.10276
835.06841	1.11848
833.13984	1.13302
831.21128	1.14623
829.28271	1.16060
827.35415	1.17506
825.42559	1.18758
823.49702	1.20016
821.56846	1.20834
819.63989	1.21377
817.71133	1.22858
815.78276	1.24736
813.85420	1.26002
811.92563	1.26929
809.99707	1.28079
808.06851	1.29478
806.13994	1.30501
804.21138	1.31702
802.28281	1.34489
800.35425	1.37196
798.42568	1.36970
796.49712	1.37012
794.56855	1.41505
792.63999	1.45860
790.71143	1.43863
788.78286	1.43423
786.85430	1.52314
784.92573	1.65915
782.99717	1.65527
781.06860	1.53267
779.14004	1.45046
777.21147	1.42564
775.28291	1.40879
773.35435	1.36542
771.42578	1.34701
769.49722	1.33230
767.56865	1.29832
765.64009	1.30765
763.71152	1.37001
761.78296	1.33327
759.85439	1.18384
757.92583	1.09393
755.99727	1.07090
754.06870	1.07393
752.14014	1.11890
750.21157	1.20168
748.28301	1.21395
746.35444	1.12353
744.42588	0.99322
742.49731	0.86471
740.56875	0.80654
738.64019	0.83753
736.71162	0.84598
734.78306	0.76953
732.85449	0.67593
730.92593	0.56981
728.99736	0.47728
727.06880	0.39257
725.14023	0.30101
723.21167	0.23967
721.28311	0.19988
719.35454	0.19059
717.42598	0.18239
715.49741	0.04066
713.56885	-0.16064
711.64028	-0.24481
709.71172	-0.35425
707.78315	-0.74727
705.85459	-0.74524
703.92603	-0.68673
701.99746	-0.43659
700.06890	-0.25900
698.14033	-0.18202
696.21177	-0.12842
694.28320	0.00243
692.35464	0.09610
690.42607	0.07993
688.49751	0.05622
686.56895	0.06857
684.64038	0.02229
682.71182	-0.05896
680.78325	-0.10333
678.85469	-0.08303
676.92612	0.04348
674.99756	0.15462
673.06899	0.12145
671.14043	0.06662
669.21187	0.16663
667.28330	0.25915
665.35474	0.22885
663.42617	0.14973
661.49761	0.06444
659.56904	0.01613
657.64048	0.02255
655.71191	0.05037
653.78335	0.09047
651.85479	0.14475
649.92622	0.17970
647.99766	0.14536
646.06909	0.07296
644.14053	0.03156
642.21196	0.01685
640.28340	0.00052
638.35483	-0.00248
636.42627	0.01299
634.49771	0.04709
632.56914	0.09384
630.64058	0.15894
628.71201	0.26230
626.78345	0.26816
624.85488	0.15446
622.92632	0.07734
620.99775	0.03844
619.06919	-0.00915
617.14062	0.01351
615.21206	0.08359
613.28350	0.06684
611.35493	0.02661
609.42637	0.04363
607.49780	0.06967
605.56924	0.07461
603.64067	0.12248
601.71211	0.18037
599.78354	0.18056
597.85498	0.18186
595.92642	0.14976
593.99785	0.05547
592.06929	0.03298
590.14072	0.08157
588.21216	0.07182
586.28359	-0.01828
584.35503	-0.07909
582.42646	-0.03936
580.49790	0.02826
578.56934	0.09440
576.64077	0.14500
574.71221	0.14315
572.78364	0.10520
570.85508	0.05546
568.92651	0.01597
566.99795	0.01592
565.06938	0.03639
563.14082	0.02827
561.21226	0.02432
559.28369	0.05966
557.35513	0.10023
555.42656	0.10475
553.49800	0.11258
551.56943	0.12594
549.64087	0.08609
547.71230	0.02288
545.78374	0.01021
543.85518	0.04352
541.92661	0.07871
539.99805	0.09822
538.06948	0.11568
536.14092	0.14677
534.21235	0.15370
532.28379	0.11733
530.35522	0.08071
528.42666	0.04064
526.49810	0.03077
524.56953	0.05849
522.64097	0.07171
520.71240	0.06852
518.78384	0.05198
516.85527	0.02369
514.92671	0.00981
512.99814	0.02091
511.06958	0.06800
509.14102	0.12187
507.21245	0.11708
505.28389	0.08994
503.35532	0.10611
501.42676	0.14755
499.49819	0.13516
