3997.91411	0.06722
3995.98555	0.06690
3994.05698	0.06771
3992.12842	0.06881
3990.19985	0.06945
3988.27129	0.06970
3986.34272	0.06996
3984.41416	0.07036
3982.48560	0.07065
3980.55703	0.07060
3978.62847	0.07044
3976.69990	0.07086
3974.77134	0.07153
3972.84277	0.07172
3970.91421	0.07174
3968.98564	0.07195
3967.05708	0.07219
3965.12852	0.07219
3963.19995	0.07208
3961.27139	0.07213
3959.34282	0.07252
3957.41426	0.07296
3955.48569	0.07290
3953.55713	0.07266
3951.62856	0.07288
3949.70000	0.07344
3947.77144	0.07366
3945.84287	0.07333
3943.91431	0.07312
3941.98574	0.07326
3940.05718	0.07302
3938.12861	0.07260
3936.20005	0.07272
3934.27148	0.07341
3932.34292	0.07429
3930.41436	0.07454
3928.48579	0.07383
3926.55723	0.07304
3924.62866	0.07293
3922.70010	0.07312
3920.77153	0.07318
3918.84297	0.07337
3916.91440	0.07343
3914.98584	0.07292
3913.05728	0.07204
3911.12871	0.07124
3909.20015	0.07121
3907.27158	0.07239
3905.34302	0.07417
3903.41445	0.07571
3901.48589	0.07686
3899.55732	0.07714
3897.62876	0.07582
3895.70020	0.07406
3893.77163	0.07360
3891.84307	0.07463
3889.91450	0.07513
3887.98594	0.07423
3886.05737	0.07418
3884.12881	0.07530
3882.20024	0.07585
3880.27168	0.07586
3878.34312	0.07541
3876.41455	0.07475
3874.48599	0.07516
3872.55742	0.07673
3870.62886	0.07832
3868.70029	0.07879
3866.77173	0.07804
3864.84316	0.07826
3862.91460	0.07969
3860.98604	0.07949
3859.05747	0.07808
3857.12891	0.07807
3855.20034	0.07994
3853.27178	0.08304
3851.34321	0.08423
3849.41465	0.08199
3847.48608	0.07976
3845.55752	0.07889
3843.62896	0.07979
3841.70039	0.08204
3839.77183	0.08462
3837.84326	0.08679
3835.91470	0.08748
3833.98613	0.08708
3832.05757	0.08688
3830.12900	0.08673
3828.20044	0.08666
3826.27187	0.08750
3824.34331	0.08910
3822.41475	0.09117
3820.48618	0.09362
3818.55762	0.09406
3816.62905	0.09326
3814.70049	0.09299
3812.77192	0.09232
3810.84336	0.09180
3808.91479	0.09258
3806.98623	0.09469
3805.05767	0.09691
3803.12910	0.09890
3801.20054	0.10189
3799.27197	0.10378
3797.34341	0.10324
3795.41484	0.10290
3793.48628	0.10286
3791.55771	0.10290
3789.62915	0.10366
3787.70059	0.10517
3785.77202	0.10741
3783.84346	0.10971
3781.91489	0.11120
3779.98633	0.11292
3778.05776	0.11519
3776.12920	0.11613
3774.20063	0.11617
3772.27207	0.11722
3770.34351	0.12029
3768.41494	0.12445
3766.48638	0.12726
3764.55781	0.12879
3762.62925	0.12980
3760.70068	0.13117
3758.77212	0.13410
3756.84355	0.13768
3754.91499	0.14030
3752.98643	0.14311
3751.05786	0.14800
3749.12930	0.15317
3747.20073	0.15507
3745.27217	0.15673
3743.34360	0.16043
3741.41504	0.16388
3739.48647	0.16658
3737.55791	0.17066
3735.62935	0.17756
3733.70078	0.18548
3731.77222	0.19023
3729.84365	0.19314
3727.91509	0.19656
3725.98652	0.20179
3724.05796	0.20855
3722.12939	0.21502
3720.20083	0.22098
3718.27227	0.22676
3716.34370	0.23284
3714.41514	0.24025
3712.48657	0.25106
3710.55801	0.26643
3708.62944	0.28088
3706.70088	0.29108
3704.77231	0.30112
3702.84375	0.31416
3700.91519	0.33138
3698.98662	0.34976
3697.05806	0.36703
3695.12949	0.38542
3693.20093	0.40535
3691.27236	0.42776
3689.34380	0.45700
3687.41523	0.49165
3685.48667	0.52083
3683.55811	0.54574
3681.62954	0.57286
3679.70098	0.60444
3677.77241	0.63880
3675.84385	0.67942
3673.91528	0.73236
3671.98672	0.77501
3670.05815	0.81344
3668.12959	0.86632
3666.20103	0.91399
3664.27246	0.95374
3662.34390	0.99708
3660.41533	1.04476
3658.48677	1.09213
3656.55820	1.14207
3654.62964	1.19724
3652.70107	1.24320
3650.77251	1.28318
3648.84395	1.34009
3646.91538	1.41110
3644.98682	1.46130
3643.05825	1.49834
3641.12969	1.53739
3639.20112	1.58203
3637.27256	1.62702
3635.34399	1.67010
3633.41543	1.71345
3631.48687	1.75467
3629.55830	1.79641
3627.62974	1.85147
3625.70117	1.90273
3623.77261	1.93571
3621.84404	1.96646
3619.91548	2.00264
3617.98691	2.04822
3616.05835	2.09270
3614.12979	2.12944
3612.20122	2.16780
3610.27266	2.20638
3608.34409	2.24611
3606.41553	2.28911
3604.48696	2.32793
3602.55840	2.36223
3600.62983	2.40041
3598.70127	2.44177
3596.77271	2.48149
3594.84414	2.52229
3592.91558	2.56430
3590.98701	2.60296
3589.05845	2.63845
3587.12988	2.68026
3585.20132	2.72651
3583.27275	2.76710
3581.34419	2.80565
3579.41562	2.84625
3577.48706	2.88797
3575.55850	2.92937
3573.62993	2.97196
3571.70137	3.01454
3569.77280	3.05565
3567.84424	3.09841
3565.91567	3.15101
3563.98711	3.20320
3562.05854	3.24402
3560.12998	3.28254
3558.20142	3.32366
3556.27285	3.36723
3554.34429	3.41182
3552.41572	3.45803
3550.48716	3.50360
3548.55859	3.54725
3546.63003	3.59308
3544.70146	3.64340
3542.77290	3.69266
3540.84434	3.73700
3538.91577	3.78053
3536.98721	3.82633
3535.05864	3.87315
3533.13008	3.91750
3531.20151	3.96367
3529.27295	4.01533
3527.34438	4.06881
3525.41582	4.11810
3523.48726	4.16429
3521.55869	4.21399
3519.63013	4.26239
3517.70156	4.30709
3515.77300	4.35382
3513.84443	4.40293
3511.91587	4.45242
3509.98730	4.50348
3508.05874	4.55341
3506.13018	4.59830
3504.20161	4.64182
3502.27305	4.68984
3500.34448	4.74204
3498.41592	4.79331
3496.48735	4.84355
3494.55879	4.89226
3492.63022	4.93689
3490.70166	4.98257
3488.77310	5.02997
3486.84453	5.07028
3484.91597	5.11049
3482.98740	5.16262
3481.05884	5.21889
3479.13027	5.27031
3477.20171	5.31942
3475.27314	5.37037
3473.34458	5.42434
3471.41602	5.47370
3469.48745	5.51350
3467.55889	5.55273
3465.63032	5.59900
3463.70176	5.65046
3461.77319	5.69685
3459.84463	5.73551
3457.91606	5.77816
3455.98750	5.83239
3454.05894	5.89242
3452.13037	5.95302
3450.20181	6.00808
3448.27324	6.05376
3446.34468	6.10039
3444.41611	6.15217
3442.48755	6.20973
3440.55898	6.26043
3438.63042	6.29094
3436.70186	6.31525
3434.77329	6.35598
3432.84473	6.41159
3430.91616	6.46702
3428.98760	6.53223
3427.05903	6.60693
3425.13047	6.67155
3423.20190	6.71322
3421.27334	6.74959
3419.34478	6.80212
3417.41621	6.86130
3415.48765	6.89822
3413.55908	6.91261
3411.63052	6.95438
3409.70195	7.04055
3407.77339	7.13648
3405.84482	7.19108
3403.91626	7.20161
3401.98770	7.19066
3400.05913	7.19623
3398.13057	7.24596
3396.20200	7.29250
3394.27344	7.32218
3392.34487	7.36863
3390.41631	7.42732
3388.48774	7.46389
3386.55918	7.50122
3384.63062	7.53818
3382.70205	7.53725
3380.77349	7.53450
3378.84492	7.57186
3376.91636	7.65180
3374.98779	7.71521
3373.05923	7.71847
3371.13066	7.69297
3369.20210	7.69253
3367.27354	7.75951
3365.34497	7.87022
3363.41641	7.87613
3361.48784	7.76949
3359.55928	7.72129
3357.63071	7.76343
3355.70215	7.85025
3353.77358	7.95056
3351.84502	8.03020
3349.91646	8.01247
3347.98789	7.93409
3346.05933	7.91431
3344.13076	7.96712
3342.20220	8.06563
3340.27363	8.15232
3338.34507	8.17217
3336.41650	8.17462
3334.48794	8.22859
3332.55937	8.24376
3330.63081	8.18754
3328.70225	8.14770
3326.77368	8.13912
3324.84512	8.14075
3322.91655	8.10767
3320.98799	8.07201
3319.05942	8.09025
3317.13086	8.09075
3315.20229	8.03292
3313.27373	8.03435
3311.34517	8.09962
3309.41660	8.15406
3307.48804	8.19336
3305.55947	8.19821
3303.63091	8.20179
3301.70234	8.22985
3299.77378	8.22626
3297.84521	8.16486
3295.91665	8.14216
3293.98809	8.19968
3292.05952	8.26682
3290.13096	8.28197
3288.20239	8.23717
3286.27383	8.14991
3284.34526	8.03291
3282.41670	7.96139
3280.48813	7.97593
3278.55957	8.03926
3276.63101	8.08718
3274.70244	8.09208
3272.77388	8.15094
3270.84531	8.32412
3268.91675	8.41844
3266.98818	8.28447
3265.05962	8.11573
3263.13105	8.06899
3261.20249	8.19184
3259.27393	8.44022
3257.34536	8.59960
3255.41680	8.46817
3253.48823	8.26366
3251.55967	8.18229
3249.63110	8.14411
3247.70254	8.13538
3245.77397	8.20359
3243.84541	8.31230
3241.91685	8.35510
3239.98828	8.25223
3238.05972	8.11390
3236.13115	8.09192
3234.20259	8.15053
3232.27402	8.17600
3230.34546	8.21658
3228.41689	8.31702
3226.48833	8.36720
3224.55977	8.32841
3222.63120	8.25473
3220.70264	8.14843
3218.77407	8.07461
3216.84551	8.06448
3214.91694	8.06451
3212.98838	8.02683
3211.05981	7.91253
3209.13125	7.78390
3207.20269	7.73925
3205.27412	7.77687
3203.34556	7.79257
3201.41699	7.72852
3199.48843	7.66144
3197.55986	7.63934
3195.63130	7.63275
3193.70273	7.63081
3191.77417	7.60717
3189.84561	7.54237
3187.91704	7.48506
3185.98848	7.42257
3184.05991	7.35391
3182.13135	7.33530
3180.20278	7.31714
3178.27422	7.23880
3176.34565	7.15366
3174.41709	7.09977
3172.48853	7.06857
3170.55996	7.03917
3168.63140	6.98121
3166.70283	6.91060
3164.77427	6.85413
3162.84570	6.79497
3160.91714	6.72093
3158.98857	6.64497
3157.06001	6.57012
3155.13145	6.49519
3153.20288	6.42117
3151.27432	6.33691
3149.34575	6.25880
3147.41719	6.20652
3145.48862	6.15977
3143.56006	6.09527
3141.63149	6.00725
3139.70293	5.92325
3137.77437	5.86271
3135.84580	5.79551
3133.91724	5.71372
3131.98867	5.64238
3130.06011	5.58051
3128.13154	5.50996
3126.20298	5.43204
3124.27441	5.36024
3122.34585	5.29050
3120.41729	5.21265
3118.48872	5.13612
3116.56016	5.07327
3114.63159	5.01517
3112.70303	4.94870
3110.77446	4.87511
3108.84590	4.80071
3106.91733	4.73046
3104.98877	4.66619
3103.06021	4.60489
3101.13164	4.54111
3099.20308	4.47400
3097.27451	4.40554
3095.34595	4.33282
3093.41738	4.25818
3091.48882	4.19116
3089.56025	4.12986
3087.63169	4.06717
3085.70312	4.00448
3083.77456	3.94353
3081.84600	3.88245
3079.91743	3.81905
3077.98887	3.75459
3076.06030	3.69352
3074.13174	3.63680
3072.20317	3.57996
3070.27461	3.52022
3068.34604	3.46114
3066.41748	3.40448
3064.48892	3.34746
3062.56035	3.29033
3060.63179	3.23651
3058.70322	3.18514
3056.77466	3.13266
3054.84609	3.07948
3052.91753	3.02728
3050.98896	2.97588
3049.06040	2.92519
3047.13184	2.87473
3045.20327	2.82469
3043.27471	2.77639
3041.34614	2.72913
3039.41758	2.68174
3037.48901	2.63515
3035.56045	2.58967
3033.63188	2.54390
3031.70332	2.49800
3029.77476	2.45374
3027.84619	2.41162
3025.91763	2.37108
3023.98906	2.33093
3022.06050	2.28982
3020.13193	2.24796
3018.20337	2.20684
3016.27480	2.16730
3014.34624	2.12944
3012.41768	2.09279
3010.48911	2.05643
3008.56055	2.01999
3006.63198	1.98360
3004.70342	1.94744
3002.77485	1.91178
3000.84629	1.87706
2998.91772	1.84321
2996.98916	1.81008
2995.06060	1.77761
2993.13203	1.74522
2991.20347	1.71310
2989.27490	1.68205
2987.34634	1.65171
2985.41777	1.62165
2983.48921	1.59228
2981.56064	1.56347
2979.63208	1.53472
2977.70352	1.50630
2975.77495	1.47847
2973.84639	1.45083
2971.91782	1.42333
2969.98926	1.39639
2968.06069	1.37024
2966.13213	1.34465
2964.20356	1.31936
2962.27500	1.29460
2960.34644	1.27032
2958.41787	1.24639
2956.48931	1.22333
2954.56074	1.20133
2952.63218	1.17965
2950.70361	1.15760
2948.77505	1.13588
2946.84648	1.11523
2944.91792	1.09504
2942.98936	1.07478
2941.06079	1.05473
2939.13223	1.03515
2937.20366	1.01598
2935.27510	0.99712
2933.34653	0.97870
2931.41797	0.96052
2929.48940	0.94237
2927.56084	0.92480
2925.63228	0.90803
2923.70371	0.89182
2921.77515	0.87594
2919.84658	0.86004
2917.91802	0.84419
2915.98945	0.82853
2914.06089	0.81328
2912.13232	0.79882
2910.20376	0.78534
2908.27520	0.77207
2906.34663	0.75836
2904.41807	0.74493
2902.48950	0.73234
2900.56094	0.72004
2898.63237	0.70764
2896.70381	0.69539
2894.77524	0.68345
2892.84668	0.67171
2890.91812	0.66015
2888.98955	0.64888
2887.06099	0.63778
2885.13242	0.62651
2883.20386	0.61531
2881.27529	0.60480
2879.34673	0.59476
2877.41816	0.58465
2875.48960	0.57460
2873.56104	0.56472
2871.63247	0.55492
2869.70391	0.54526
2867.77534	0.53582
2865.84678	0.52647
2863.91821	0.51724
2861.98965	0.50829
2860.06108	0.49948
2858.13252	0.49057
2856.20396	0.48183
2854.27539	0.47349
2852.34683	0.46548
2850.41826	0.45785
2848.48970	0.45052
2846.56113	0.44332
2844.63257	0.43649
2842.70400	0.43025
2840.77544	0.42431
2838.84687	0.41851
2836.91831	0.41276
2834.98975	0.40677
2833.06118	0.40054
2831.13262	0.39441
2829.20405	0.38856
2827.27549	0.38286
2825.34692	0.37723
2823.41836	0.37177
2821.48979	0.36634
2819.56123	0.36079
2817.63267	0.35525
2815.70410	0.34988
2813.77554	0.34465
2811.84697	0.33941
2809.91841	0.33431
2807.98984	0.32958
2806.06128	0.32498
2804.13271	0.32031
2802.20415	0.31563
2800.27559	0.31101
2798.34702	0.30645
2796.41846	0.30199
2794.48989	0.29773
2792.56133	0.29357
2790.63276	0.28938
2788.70420	0.28526
2786.77563	0.28138
2784.84707	0.27774
2782.91851	0.27411
2780.98994	0.27035
2779.06138	0.26659
2777.13281	0.26302
2775.20425	0.25967
2773.27568	0.25642
2771.34712	0.25316
2769.41855	0.24985
2767.48999	0.24656
2765.56143	0.24340
2763.63286	0.24034
2761.70430	0.23722
2759.77573	0.23402
2757.84717	0.23102
2755.91860	0.22844
2753.99004	0.22594
2752.06147	0.22313
2750.13291	0.22017
2748.20435	0.21744
2746.27578	0.21509
2744.34722	0.21293
2742.41865	0.21073
2740.49009	0.20858
2738.56152	0.20637
2736.63296	0.20389
2734.70439	0.20145
2732.77583	0.19933
2730.84727	0.19730
2728.91870	0.19517
2726.99014	0.19311
2725.06157	0.19129
2723.13301	0.18955
2721.20444	0.18773
2719.27588	0.18589
2717.34731	0.18409
2715.41875	0.18233
2713.49019	0.18069
2711.56162	0.17914
2709.63306	0.17748
2707.70449	0.17573
2705.77593	0.17394
2703.84736	0.17228
2701.91880	0.17091
2699.99023	0.16971
2698.06167	0.16855
2696.13311	0.16744
2694.20454	0.16625
2692.27598	0.16482
2690.34741	0.16334
2688.41885	0.16199
2686.49028	0.16082
2684.56172	0.15981
2682.63315	0.15880
2680.70459	0.15770
2678.77603	0.15657
2676.84746	0.15548
2674.91890	0.15459
2672.99033	0.15384
2671.06177	0.15297
2669.13320	0.15200
2667.20464	0.15111
2665.27607	0.15034
2663.34751	0.14957
2661.41895	0.14875
2659.49038	0.14796
2657.56182	0.14727
2655.63325	0.14658
2653.70469	0.14581
2651.77612	0.14509
2649.84756	0.14457
2647.91899	0.14420
2645.99043	0.14379
2644.06187	0.14318
2642.13330	0.14259
2640.20474	0.14223
2638.27617	0.14191
2636.34761	0.14149
2634.41904	0.14113
2632.49048	0.14085
2630.56191	0.14059
2628.63335	0.14034
2626.70479	0.14009
2624.77622	0.13982
2622.84766	0.13952
2620.91909	0.13926
2618.99053	0.13906
2617.06196	0.13890
2615.13340	0.13881
2613.20483	0.13884
2611.27627	0.13897
2609.34771	0.13902
2607.41914	0.13899
2605.49058	0.13902
2603.56201	0.13902
2601.63345	0.13900
2599.70488	0.13909
2597.77632	0.13921
2595.84775	0.13922
2593.91919	0.13924
2591.99062	0.13951
2590.06206	0.13991
2588.13350	0.14016
2586.20493	0.14033
2584.27637	0.14055
2582.34780	0.14085
2580.41924	0.14117
2578.49067	0.14149
2576.56211	0.14192
2574.63354	0.14244
2572.70498	0.14291
2570.77642	0.14331
2568.84785	0.14368
2566.91929	0.14403
2564.99072	0.14439
2563.06216	0.14477
2561.13359	0.14520
2559.20503	0.14578
2557.27646	0.14656
2555.34790	0.14729
2553.41934	0.14776
2551.49077	0.14814
2549.56221	0.14876
2547.63364	0.14949
2545.70508	0.15014
2543.77651	0.15077
2541.84795	0.15149
2539.91938	0.15224
2537.99082	0.15303
2536.06226	0.15379
2534.13369	0.15440
2532.20513	0.15501
2530.27656	0.15577
2528.34800	0.15660
2526.41943	0.15738
2524.49087	0.15814
2522.56230	0.15889
2520.63374	0.15954
2518.70518	0.16017
2516.77661	0.16100
2514.84805	0.16190
2512.91948	0.16269
2510.99092	0.16349
2509.06235	0.16437
2507.13379	0.16518
2505.20522	0.16593
2503.27666	0.16688
2501.34810	0.16799
2499.41953	0.16892
2497.49097	0.16964
2495.56240	0.17034
2493.63384	0.17118
2491.70527	0.17218
2489.77671	0.17325
2487.84814	0.17425
2485.91958	0.17512
2483.99102	0.17590
2482.06245	0.17678
2480.13389	0.17774
2478.20532	0.17864
2476.27676	0.17959
2474.34819	0.18057
2472.41963	0.18149
2470.49106	0.18244
2468.56250	0.18343
2466.63394	0.18446
2464.70537	0.18547
2462.77681	0.18635
2460.84824	0.18713
2458.91968	0.18801
2456.99111	0.18905
2455.06255	0.19017
2453.13398	0.19123
2451.20542	0.19217
2449.27686	0.19317
2447.34829	0.19421
2445.41973	0.19512
2443.49116	0.19606
2441.56260	0.19719
2439.63403	0.19836
2437.70547	0.19947
2435.77690	0.20059
2433.84834	0.20168
2431.91978	0.20275
2429.99121	0.20375
2428.06265	0.20469
2426.13408	0.20565
2424.20552	0.20662
2422.27695	0.20767
2420.34839	0.20884
2418.41982	0.21001
2416.49126	0.21116
2414.56270	0.21237
2412.63413	0.21360
2410.70557	0.21475
2408.77700	0.21587
2406.84844	0.21705
2404.91987	0.21830
2402.99131	0.21949
2401.06274	0.22067
2399.13418	0.22197
2397.20562	0.22336
2395.27705	0.22471
2393.34849	0.22602
2391.41992	0.22735
2389.49136	0.22871
2387.56279	0.23035
2385.63423	0.23262
2383.70566	0.23568
2381.77710	0.23951
2379.84854	0.24421
2377.91997	0.24985
2375.99141	0.25642
2374.06284	0.26406
2372.13428	0.27248
2370.20571	0.28139
2368.27715	0.29034
2366.34858	0.29804
2364.42002	0.30440
2362.49146	0.30925
2360.56289	0.31239
2358.63433	0.31513
2356.70576	0.31504
2354.77720	0.31028
2352.84863	0.30363
2350.92007	0.29694
2348.99150	0.29279
2347.06294	0.29309
2345.13437	0.29868
2343.20581	0.30750
2341.27725	0.31317
2339.34868	0.31444
2337.42012	0.31492
2335.49155	0.31607
2333.56299	0.31673
2331.63442	0.31690
2329.70586	0.31751
2327.77729	0.31754
2325.84873	0.31583
2323.92017	0.31370
2321.99160	0.31241
2320.06304	0.31157
2318.13447	0.31045
2316.20591	0.30924
2314.27734	0.30858
2312.34878	0.30842
2310.42021	0.30846
2308.49165	0.30848
2306.56309	0.30835
2304.63452	0.30828
2302.70596	0.30864
2300.77739	0.30948
2298.84883	0.31048
2296.92026	0.31138
2294.99170	0.31216
2293.06313	0.31296
2291.13457	0.31379
2289.20601	0.31475
2287.27744	0.31597
2285.34888	0.31729
2283.42031	0.31872
2281.49175	0.32045
2279.56318	0.32254
2277.63462	0.32478
2275.70605	0.32707
2273.77749	0.32927
2271.84893	0.33130
2269.92036	0.33324
2267.99180	0.33534
2266.06323	0.33760
2264.13467	0.33973
2262.20610	0.34166
2260.27754	0.34355
2258.34897	0.34543
2256.42041	0.34727
2254.49185	0.34902
2252.56328	0.35084
2250.63472	0.35292
2248.70615	0.35518
2246.77759	0.35741
2244.84902	0.35952
2242.92046	0.36156
2240.99189	0.36364
2239.06333	0.36592
2237.13477	0.36835
2235.20620	0.37065
2233.27764	0.37279
2231.34907	0.37485
2229.42051	0.37683
2227.49194	0.37884
2225.56338	0.38097
2223.63481	0.38327
2221.70625	0.38563
2219.77769	0.38789
2217.84912	0.39010
2215.92056	0.39233
2213.99199	0.39454
2212.06343	0.39666
2210.13486	0.39876
2208.20630	0.40088
2206.27773	0.40293
2204.34917	0.40486
2202.42061	0.40679
2200.49204	0.40875
2198.56348	0.41064
2196.63491	0.41252
2194.70635	0.41451
2192.77778	0.41655
2190.84922	0.41848
2188.92065	0.42022
2186.99209	0.42194
2185.06353	0.42383
2183.13496	0.42570
2181.20640	0.42740
2179.27783	0.42906
2177.34927	0.43075
2175.42070	0.43235
2173.49214	0.43379
2171.56357	0.43514
2169.63501	0.43652
2167.70645	0.43796
2165.77788	0.43942
2163.84932	0.44070
2161.92075	0.44174
2159.99219	0.44271
2158.06362	0.44379
2156.13506	0.44499
2154.20649	0.44608
2152.27793	0.44688
2150.34937	0.44758
2148.42080	0.44828
2146.49224	0.44895
2144.56367	0.44949
2142.63511	0.44988
2140.70654	0.45021
2138.77798	0.45051
2136.84941	0.45074
2134.92085	0.45095
2132.99229	0.45110
2131.06372	0.45109
2129.13516	0.45093
2127.20659	0.45063
2125.27803	0.45025
2123.34946	0.44993
2121.42090	0.44969
2119.49233	0.44929
2117.56377	0.44864
2115.63521	0.44788
2113.70664	0.44719
2111.77808	0.44650
2109.84951	0.44569
2107.92095	0.44474
2105.99238	0.44363
2104.06382	0.44244
2102.13525	0.44127
2100.20669	0.44008
2098.27812	0.43876
2096.34956	0.43736
2094.42100	0.43602
2092.49243	0.43464
2090.56387	0.43309
2088.63530	0.43141
2086.70674	0.42969
2084.77817	0.42786
2082.84961	0.42596
2080.92104	0.42409
2078.99248	0.42216
2077.06392	0.42008
2075.13535	0.41799
2073.20679	0.41596
2071.27822	0.41385
2069.34966	0.41167
2067.42109	0.40947
2065.49253	0.40723
2063.56396	0.40492
2061.63540	0.40263
2059.70684	0.40029
2057.77827	0.39782
2055.84971	0.39525
2053.92114	0.39259
2051.99258	0.38999
2050.06401	0.38749
2048.13545	0.38502
2046.20688	0.38247
2044.27832	0.37992
2042.34976	0.37739
2040.42119	0.37483
2038.49263	0.37217
2036.56406	0.36945
2034.63550	0.36670
2032.70693	0.36395
2030.77837	0.36120
2028.84980	0.35839
2026.92124	0.35566
2024.99268	0.35309
2023.06411	0.35054
2021.13555	0.34787
2019.20698	0.34526
2017.27842	0.34276
2015.34985	0.34004
2013.42129	0.33708
2011.49272	0.33420
2009.56416	0.33151
2007.63560	0.32895
2005.70703	0.32640
2003.77847	0.32373
2001.84990	0.32101
1999.92134	0.31843
1997.99277	0.31587
1996.06421	0.31329
1994.13564	0.31089
1992.20708	0.30862
1990.27852	0.30622
1988.34995	0.30368
1986.42139	0.30101
1984.49282	0.29837
1982.56426	0.29597
1980.63569	0.29373
1978.70713	0.29148
1976.77856	0.28923
1974.85000	0.28706
1972.92144	0.28496
1970.99287	0.28291
1969.06431	0.28096
1967.13574	0.27903
1965.20718	0.27693
1963.27861	0.27479
1961.35005	0.27276
1959.42148	0.27080
1957.49292	0.26893
1955.56436	0.26706
1953.63579	0.26526
1951.70723	0.26366
1949.77866	0.26213
1947.85010	0.26055
1945.92153	0.25909
1943.99297	0.25787
1942.06440	0.25660
1940.13584	0.25496
1938.20728	0.25330
1936.27871	0.25186
1934.35015	0.25049
1932.42158	0.24916
1930.49302	0.24796
1928.56445	0.24690
1926.63589	0.24590
1924.70732	0.24503
1922.77876	0.24422
1920.85020	0.24327
1918.92163	0.24242
1916.99307	0.24160
1915.06450	0.24052
1913.13594	0.23935
1911.20737	0.23852
1909.27881	0.23798
1907.35024	0.23737
1905.42168	0.23656
1903.49312	0.23582
1901.56455	0.23522
1899.63599	0.23463
1897.70742	0.23414
1895.77886	0.23390
1893.85029	0.23370
1891.92173	0.23340
1889.99316	0.23319
1888.06460	0.23284
1886.13604	0.23240
1884.20747	0.23217
1882.27891	0.23198
1880.35034	0.23176
1878.42178	0.23164
1876.49321	0.23167
1874.56465	0.23167
1872.63608	0.23181
1870.70752	0.23228
1868.77896	0.23311
1866.85039	0.23342
1864.92183	0.23297
1862.99326	0.23265
1861.06470	0.23281
1859.13613	0.23320
1857.20757	0.23354
1855.27900	0.23392
1853.35044	0.23438
1851.42187	0.23492
1849.49331	0.23550
1847.56475	0.23636
1845.63618	0.23753
1843.70762	0.23857
1841.77905	0.23898
1839.85049	0.23919
1837.92192	0.23990
1835.99336	0.24083
1834.06479	0.24175
1832.13623	0.24279
1830.20767	0.24435
1828.27910	0.24596
1826.35054	0.24700
1824.42197	0.24812
1822.49341	0.24915
1820.56484	0.25016
1818.63628	0.25146
1816.70771	0.25310
1814.77915	0.25480
1812.85059	0.25668
1810.92202	0.25885
1808.99346	0.26090
1807.06489	0.26269
1805.13633	0.26451
1803.20776	0.26680
1801.27920	0.26951
1799.35063	0.27240
1797.42207	0.27492
1795.49351	0.27738
1793.56494	0.28040
1791.63638	0.28413
1789.70781	0.28725
1787.77925	0.28948
1785.85068	0.29247
1783.92212	0.29624
1781.99355	0.30037
1780.06499	0.30469
1778.13643	0.30891
1776.20786	0.31285
1774.27930	0.31735
1772.35073	0.32357
1770.42217	0.32992
1768.49360	0.33475
1766.56504	0.33933
1764.63647	0.34440
1762.70791	0.35039
1760.77935	0.35803
1758.85078	0.36508
1756.92222	0.37210
1754.99365	0.37980
1753.06509	0.38697
1751.13652	0.39568
1749.20796	0.40650
1747.27939	0.41692
1745.35083	0.42599
1743.42227	0.43556
1741.49370	0.44611
1739.56514	0.45859
1737.63657	0.47098
1735.70801	0.48177
1733.77944	0.49831
1731.85088	0.51807
1729.92231	0.53333
1727.99375	0.54864
1726.06519	0.56508
1724.13662	0.58322
1722.20806	0.60301
1720.27949	0.62146
1718.35093	0.64324
1716.42236	0.67524
1714.49380	0.70511
1712.56523	0.72909
1710.63667	0.75260
1708.70811	0.77812
1706.77954	0.80713
1704.85098	0.84167
1702.92241	0.87223
1700.99385	0.90206
1699.06528	0.94639
1697.13672	0.98698
1695.20815	1.02796
1693.27959	1.06698
1691.35103	1.09803
1689.42246	1.13413
1687.49390	1.17237
1685.56533	1.20915
1683.63677	1.26533
1681.70820	1.32264
1679.77964	1.35905
1677.85107	1.39403
1675.92251	1.43437
1673.99395	1.48434
1672.06538	1.52877
1670.13682	1.57221
1668.20825	1.62721
1666.27969	1.66955
1664.35112	1.70428
1662.42256	1.74810
1660.49399	1.79720
1658.56543	1.83510
1656.63687	1.86580
1654.70830	1.89496
1652.77974	1.94674
1650.85117	2.00144
1648.92261	2.02541
1646.99404	2.05537
1645.06548	2.08836
1643.13691	2.10947
1641.20835	2.12331
1639.27979	2.13618
1637.35122	2.14614
1635.42266	2.15098
1633.49409	2.14644
1631.56553	2.13492
1629.63696	2.12175
1627.70840	2.10066
1625.77983	2.07459
1623.85127	2.03917
1621.92271	1.99532
1619.99414	1.95723
1618.06558	1.91950
1616.13701	1.86291
1614.20845	1.80372
1612.27988	1.75875
1610.35132	1.71158
1608.42275	1.65978
1606.49419	1.60845
1604.56562	1.56118
1602.63706	1.51544
1600.70850	1.46998
1598.77993	1.42727
1596.85137	1.38695
1594.92280	1.34800
1592.99424	1.31011
1591.06567	1.27490
1589.13711	1.24167
1587.20854	1.21025
1585.27998	1.18038
1583.35142	1.15176
1581.42285	1.12525
1579.49429	1.10230
1577.56572	1.08111
1575.63716	1.05425
1573.70859	1.02997
1571.78003	1.01375
1569.85146	0.99581
1567.92290	0.97482
1565.99434	0.95780
1564.06577	0.94297
1562.13721	0.93063
1560.20864	0.92053
1558.28008	0.90137
1556.35151	0.88202
1554.42295	0.87027
1552.49438	0.85915
1550.56582	0.84834
1548.63726	0.83736
1546.70869	0.82809
1544.78013	0.82046
1542.85156	0.81319
1540.92300	0.80487
1538.99443	0.79171
1537.06587	0.78113
1535.13730	0.77458
1533.20874	0.76732
1531.28018	0.75966
1529.35161	0.75402
1527.42305	0.74864
1525.49448	0.74274
1523.56592	0.73755
1521.63735	0.73234
1519.70879	0.72605
1517.78022	0.72033
1515.85166	0.71450
1513.92310	0.70885
1511.99453	0.70444
1510.06597	0.70104
1508.13740	0.69843
1506.20884	0.69361
1504.28027	0.68761
1502.35171	0.68378
1500.42314	0.68091
1498.49458	0.67808
1496.56602	0.67448
1494.63745	0.67086
1492.70889	0.66843
1490.78032	0.66689
1488.85176	0.66487
1486.92319	0.66161
1484.99463	0.65826
1483.06606	0.65553
1481.13750	0.65316
1479.20894	0.65098
1477.28037	0.64921
1475.35181	0.64763
1473.42324	0.64572
1471.49468	0.64257
1469.56611	0.63911
1467.63755	0.63648
1465.70898	0.63440
1463.78042	0.63221
1461.85186	0.63012
1459.92329	0.62872
1457.99473	0.62761
1456.06616	0.62522
1454.13760	0.62193
1452.20903	0.61925
1450.28047	0.61708
1448.35190	0.61510
1446.42334	0.61298
1444.49478	0.61100
1442.56621	0.60933
1440.63765	0.60776
1438.70908	0.60643
1436.78052	0.60534
1434.85195	0.60410
1432.92339	0.60264
1430.99482	0.60130
1429.06626	0.59992
1427.13770	0.59836
1425.20913	0.59692
1423.28057	0.59564
1421.35200	0.59442
1419.42344	0.59330
1417.49487	0.59189
1415.56631	0.59005
1413.63774	0.58822
1411.70918	0.58641
1409.78062	0.58461
1407.85205	0.58294
1405.92349	0.58149
1403.99492	0.57999
1402.06636	0.57840
1400.13779	0.57720
1398.20923	0.57623
1396.28066	0.57501
1394.35210	0.57340
1392.42354	0.57161
1390.49497	0.57023
1388.56641	0.56932
1386.63784	0.56829
1384.70928	0.56695
1382.78071	0.56578
1380.85215	0.56495
1378.92358	0.56433
1376.99502	0.56373
1375.06646	0.56318
1373.13789	0.56247
1371.20933	0.56156
1369.28076	0.56076
1367.35220	0.55994
1365.42363	0.55910
1363.49507	0.55848
1361.56650	0.55776
1359.63794	0.55658
1357.70937	0.55539
1355.78081	0.55434
1353.85225	0.55327
1351.92368	0.55224
1349.99512	0.55136
1348.06655	0.55047
1346.13799	0.54946
1344.20942	0.54844
1342.28086	0.54761
1340.35229	0.54699
1338.42373	0.54620
1336.49517	0.54504
1334.56660	0.54383
1332.63804	0.54277
1330.70947	0.54186
1328.78091	0.54109
1326.85234	0.54049
1324.92378	0.53991
1322.99521	0.53926
1321.06665	0.53871
1319.13809	0.53823
1317.20952	0.53736
1315.28096	0.53626
1313.35239	0.53531
1311.42383	0.53450
1309.49526	0.53369
1307.56670	0.53272
1305.63813	0.53163
1303.70957	0.53068
1301.78101	0.52985
1299.85244	0.52892
1297.92388	0.52796
1295.99531	0.52716
1294.06675	0.52652
1292.13818	0.52590
1290.20962	0.52524
1288.28105	0.52451
1286.35249	0.52385
1284.42393	0.52347
1282.49536	0.52323
1280.56680	0.52291
1278.63823	0.52253
1276.70967	0.52210
1274.78110	0.52159
1272.85254	0.52106
1270.92397	0.52055
1268.99541	0.52008
1267.06685	0.51974
1265.13828	0.51945
1263.20972	0.51915
1261.28115	0.51886
1259.35259	0.51847
1257.42402	0.51791
1255.49546	0.51737
1253.56689	0.51701
1251.63833	0.51682
1249.70977	0.51664
1247.78120	0.51635
1245.85264	0.51604
1243.92407	0.51560
1241.99551	0.51503
1240.06694	0.51455
1238.13838	0.51411
1236.20981	0.51354
1234.28125	0.51297
1232.35269	0.51254
1230.42412	0.51211
1228.49556	0.51152
1226.56699	0.51084
1224.63843	0.51020
1222.70986	0.50960
1220.78130	0.50898
1218.85273	0.50832
1216.92417	0.50764
1214.99561	0.50703
1213.06704	0.50644
1211.13848	0.50580
1209.20991	0.50523
1207.28135	0.50474
1205.35278	0.50418
1203.42422	0.50357
1201.49565	0.50305
1199.56709	0.50259
1197.63853	0.50199
1195.70996	0.50138
1193.78140	0.50085
1191.85283	0.50023
1189.92427	0.49956
1187.99570	0.49907
1186.06714	0.49892
1184.13857	0.49900
1182.21001	0.49910
1180.28145	0.49921
1178.35288	0.49952
1176.42432	0.49995
1174.49575	0.50038
1172.56719	0.50094
1170.63862	0.50156
1168.71006	0.50212
1166.78149	0.50278
1164.85293	0.50354
1162.92437	0.50412
1160.99580	0.50457
1159.06724	0.50489
1157.13867	0.50466
1155.21011	0.50394
1153.28154	0.50306
1151.35298	0.50174
1149.42441	0.49980
1147.49585	0.49762
1145.56729	0.49541
1143.63872	0.49312
1141.71016	0.49077
1139.78159	0.48843
1137.85303	0.48629
1135.92446	0.48459
1133.99590	0.48333
1132.06733	0.48232
1130.13877	0.48128
1128.21021	0.48018
1126.28164	0.47931
1124.35308	0.47870
1122.42451	0.47818
1120.49595	0.47775
1118.56738	0.47753
1116.63882	0.47751
1114.71025	0.47760
1112.78169	0.47791
1110.85312	0.47841
1108.92456	0.47903
1106.99600	0.47984
1105.06743	0.48096
1103.13887	0.48225
1101.21030	0.48359
1099.28174	0.48514
1097.35317	0.48731
1095.42461	0.49014
1093.49604	0.49360
1091.56748	0.49804
1089.63892	0.50382
1087.71035	0.51101
1085.78179	0.51908
1083.85322	0.52709
1081.92466	0.53428
1079.99609	0.53987
1078.06753	0.54312
1076.13896	0.54367
1074.21040	0.54140
1072.28184	0.53657
1070.35327	0.53001
1068.42471	0.52281
1066.49614	0.51593
1064.56758	0.50988
1062.63901	0.50474
1060.71045	0.50026
1058.78188	0.49608
1056.85332	0.49227
1054.92476	0.48901
1052.99619	0.48626
1051.06763	0.48422
1049.13906	0.48290
1047.21050	0.48208
1045.28193	0.48186
1043.35337	0.48210
1041.42480	0.48235
1039.49624	0.48244
1037.56768	0.48236
1035.63911	0.48222
1033.71055	0.48211
1031.78198	0.48175
1029.85342	0.48084
1027.92485	0.47981
1025.99629	0.47908
1024.06772	0.47861
1022.13916	0.47832
1020.21060	0.47829
1018.28203	0.47854
1016.35347	0.47895
1014.42490	0.47939
1012.49634	0.47984
1010.56777	0.48034
1008.63921	0.48092
1006.71064	0.48183
1004.78208	0.48331
1002.85352	0.48528
1000.92495	0.48766
998.99639	0.49063
997.06782	0.49426
995.13926	0.49823
993.21069	0.50203
991.28213	0.50523
989.35356	0.50744
987.42500	0.50856
985.49644	0.50897
983.56787	0.50922
981.63931	0.50970
979.71074	0.51055
977.78218	0.51206
975.85361	0.51437
973.92505	0.51714
971.99648	0.52029
970.06792	0.52386
968.13936	0.52765
966.21079	0.53150
964.28223	0.53552
962.35366	0.54001
960.42510	0.54503
958.49653	0.55037
956.56797	0.55596
954.63940	0.56179
952.71084	0.56794
950.78228	0.57454
948.85371	0.58099
946.92515	0.58683
944.99658	0.59275
943.06802	0.59906
941.13945	0.60495
939.21089	0.61012
937.28232	0.61553
935.35376	0.62167
933.42520	0.62785
931.49663	0.63384
929.56807	0.63987
927.63950	0.64563
925.71094	0.65095
923.78237	0.65662
921.85381	0.66303
919.92524	0.66952
917.99668	0.67568
916.06812	0.68196
914.13955	0.68950
912.21099	0.69866
910.28242	0.70791
908.35386	0.71584
906.42529	0.72288
904.49673	0.73024
902.56816	0.73923
900.63960	0.74958
898.71104	0.75917
896.78247	0.76750
894.85391	0.77600
892.92534	0.78586
890.99678	0.79739
889.06821	0.80894
887.13965	0.81865
885.21108	0.82728
883.28252	0.83669
881.35396	0.84783
879.42539	0.86038
877.49683	0.87263
875.56826	0.88359
873.63970	0.89467
871.71113	0.90745
869.78257	0.92114
867.85400	0.93321
865.92544	0.94256
863.99687	0.95208
862.06831	0.96457
860.13975	0.97731
858.21118	0.98858
856.28262	1.00046
854.35405	1.01241
852.42549	1.02282
850.49692	1.03249
848.56836	1.04222
846.63979	1.05219
844.71123	1.06324
842.78267	1.07503
840.85410	1.08700
838.92554	1.09887
836.99697	1.11057
835.06841	1.12258
833.13984	1.13357
831.21128	1.14441
829.28271	1.15850
827.35415	1.17351
825.42559	1.18365
823.49702	1.18842
821.56846	1.19246
819.63989	1.20289
817.71133	1.22272
815.78276	1.24423
813.85420	1.25531
811.92563	1.25860
809.99707	1.26306
808.06851	1.26506
806.13994	1.26774
804.21138	1.27564
802.28281	1.28421
800.35425	1.30087
798.42568	1.33047
796.49712	1.34636
794.56855	1.34309
792.63999	1.35368
790.71143	1.37608
788.78286	1.40746
786.85430	1.44946
784.92573	1.46214
782.99717	1.43175
781.06860	1.40114
779.14004	1.39676
777.21147	1.39207
775.28291	1.35825
773.35435	1.32939
771.42578	1.34911
769.49722	1.39270
767.56865	1.36602
765.64009	1.32105
763.71152	1.34422
761.78296	1.32885
759.85439	1.23554
757.92583	1.16833
755.99727	1.17481
754.06870	1.26122
752.14014	1.29645
750.21157	1.25316
748.28301	1.18521
746.35444	1.04275
744.42588	0.90107
742.49731	0.84737
740.56875	0.89569
738.64019	0.94922
736.71162	0.85317
734.78306	0.73802
732.85449	0.74547
730.92593	0.81662
728.99736	0.75186
727.06880	0.62763
725.14023	0.52388
723.21167	0.41383
721.28311	0.34714
719.35454	0.29717
717.42598	0.20998
715.49741	0.22260
713.56885	0.32135
711.64028	0.27661
709.71172	0.15813
707.78315	0.15972
705.85459	0.25568
703.92603	0.26562
701.99746	0.25838
700.06890	0.25507
698.14033	0.24066
696.21177	0.27659
694.28320	0.25968
692.35464	0.19165
690.42607	0.24068
688.49751	0.32708
686.56895	0.29116
684.64038	0.16403
682.71182	0.05854
680.78325	0.00791
678.85469	-0.01744
676.92612	0.01271
674.99756	0.15912
673.06899	0.22263
671.14043	0.14145
669.21187	0.14595
667.28330	0.24429
665.35474	0.35078
663.42617	0.38496
661.49761	0.34878
659.56904	0.37804
657.64048	0.53731
655.71191	0.67355
653.78335	0.52266
651.85479	0.30777
649.92622	0.20040
647.99766	0.20279
646.06909	0.23016
644.14053	0.20086
642.21196	0.15736
640.28340	0.13772
638.35483	0.13883
636.42627	0.15094
634.49771	0.16158
632.56914	0.15454
630.64058	0.16268
628.71201	0.22102
626.78345	0.28813
624.85488	0.32500
622.92632	0.36869
620.99775	0.36747
619.06919	0.29241
617.14062	0.25283
615.21206	0.27201
613.28350	0.21731
611.35493	0.13925
609.42637	0.16485
607.49780	0.20718
605.56924	0.18346
603.64067	0.17624
601.71211	0.14457
599.78354	0.12324
597.85498	0.25088
595.92642	0.42051
593.99785	0.43168
592.06929	0.37889
590.14072	0.32960
588.21216	0.24229
586.28359	0.11139
584.35503	0.07717
582.42646	0.11353
580.49790	0.13655
578.56934	0.14696
576.64077	0.15970
574.71221	0.13156
572.78364	0.11097
570.85508	0.15665
568.92651	0.19542
566.99795	0.17704
565.06938	0.15903
563.14082	0.15846
561.21226	0.14880
559.28369	0.14373
557.35513	0.17150
555.42656	0.22443
553.49800	0.24434
551.56943	0.17650
549.64087	0.10319
547.71230	0.08380
545.78374	0.09400
543.85518	0.12606
541.92661	0.15905
539.99805	0.14454
538.06948	0.13667
536.14092	0.16343
534.21235	0.17921
532.28379	0.17640
530.35522	0.16200
528.42666	0.15046
526.49810	0.17285
524.56953	0.20431
522.64097	0.19075
520.71240	0.15879
518.78384	0.13013
516.85527	0.11073
514.92671	0.11541
512.99814	0.17359
511.06958	0.28563
509.14102	0.33042
507.21245	0.23391
505.28389	0.17225
503.35532	0.21775
501.42676	0.27333
499.49819	0.24247
