3997.91411	0.06927
3995.98555	0.06939
3994.05698	0.07026
3992.12842	0.07116
3990.19985	0.07167
3988.27129	0.07193
3986.34272	0.07210
3984.41416	0.07228
3982.48560	0.07252
3980.55703	0.07274
3978.62847	0.07286
3976.69990	0.07317
3974.77134	0.07373
3972.84277	0.07406
3970.91421	0.07403
3968.98564	0.07397
3967.05708	0.07416
3965.12852	0.07437
3963.19995	0.07428
3961.27139	0.07406
3959.34282	0.07409
3957.41426	0.07424
3955.48569	0.07420
3953.55713	0.07409
3951.62856	0.07433
3949.70000	0.07523
3947.77144	0.07600
3945.84287	0.07602
3943.91431	0.07625
3941.98574	0.07676
3940.05718	0.07643
3938.12861	0.07562
3936.20005	0.07523
3934.27148	0.07543
3932.34292	0.07628
3930.41436	0.07706
3928.48579	0.07673
3926.55723	0.07597
3924.62866	0.07574
3922.70010	0.07561
3920.77153	0.07558
3918.84297	0.07627
3916.91440	0.07692
3914.98584	0.07634
3913.05728	0.07488
3911.12871	0.07381
3909.20015	0.07393
3907.27158	0.07540
3905.34302	0.07802
3903.41445	0.08075
3901.48589	0.08185
3899.55732	0.08101
3897.62876	0.07902
3895.70020	0.07716
3893.77163	0.07668
3891.84307	0.07750
3889.91450	0.07764
3887.98594	0.07662
3886.05737	0.07686
3884.12881	0.07848
3882.20024	0.07938
3880.27168	0.07952
3878.34312	0.07878
3876.41455	0.07769
3874.48599	0.07804
3872.55742	0.07953
3870.62886	0.08098
3868.70029	0.08182
3866.77173	0.08146
3864.84316	0.08168
3862.91460	0.08286
3860.98604	0.08246
3859.05747	0.08100
3857.12891	0.08102
3855.20034	0.08345
3853.27178	0.08796
3851.34321	0.08945
3849.41465	0.08581
3847.48608	0.08262
3845.55752	0.08178
3843.62896	0.08328
3841.70039	0.08573
3839.77183	0.08824
3837.84326	0.09113
3835.91470	0.09244
3833.98613	0.09162
3832.05757	0.09063
3830.12900	0.08983
3828.20044	0.08949
3826.27187	0.09047
3824.34331	0.09239
3822.41475	0.09493
3820.48618	0.09794
3818.55762	0.09823
3816.62905	0.09684
3814.70049	0.09622
3812.77192	0.09542
3810.84336	0.09481
3808.91479	0.09555
3806.98623	0.09780
3805.05767	0.10020
3803.12910	0.10265
3801.20054	0.10649
3799.27197	0.10861
3797.34341	0.10762
3795.41484	0.10676
3793.48628	0.10615
3791.55771	0.10586
3789.62915	0.10663
3787.70059	0.10819
3785.77202	0.11045
3783.84346	0.11268
3781.91489	0.11389
3779.98633	0.11556
3778.05776	0.11792
3776.12920	0.11861
3774.20063	0.11861
3772.27207	0.12015
3770.34351	0.12364
3768.41494	0.12779
3766.48638	0.13031
3764.55781	0.13143
3762.62925	0.13230
3760.70068	0.13410
3758.77212	0.13734
3756.84355	0.14044
3754.91499	0.14266
3752.98643	0.14607
3751.05786	0.15240
3749.12930	0.15865
3747.20073	0.16049
3745.27217	0.16211
3743.34360	0.16666
3741.41504	0.17116
3739.48647	0.17463
3737.55791	0.17995
3735.62935	0.18877
3733.70078	0.19786
3731.77222	0.20246
3729.84365	0.20538
3727.91509	0.20910
3725.98652	0.21447
3724.05796	0.22105
3722.12939	0.22729
3720.20083	0.23229
3718.27227	0.23567
3716.34370	0.23907
3714.41514	0.24498
3712.48657	0.25626
3710.55801	0.27429
3708.62944	0.29120
3706.70088	0.30160
3704.77231	0.31098
3702.84375	0.32339
3700.91519	0.34016
3698.98662	0.35859
3697.05806	0.37617
3695.12949	0.39471
3693.20093	0.41445
3691.27236	0.43620
3689.34380	0.46422
3687.41523	0.49773
3685.48667	0.52655
3683.55811	0.55135
3681.62954	0.57846
3679.70098	0.61013
3677.77241	0.64444
3675.84385	0.68532
3673.91528	0.73896
3671.98672	0.78126
3670.05815	0.81889
3668.12959	0.87105
3666.20103	0.91807
3664.27246	0.95764
3662.34390	1.00098
3660.41533	1.04830
3658.48677	1.09514
3656.55820	1.14538
3654.62964	1.20157
3652.70107	1.24774
3650.77251	1.28751
3648.84395	1.34475
3646.91538	1.41589
3644.98682	1.46567
3643.05825	1.50265
3641.12969	1.54168
3639.20112	1.58610
3637.27256	1.63163
3635.34399	1.67664
3633.41543	1.72241
3631.48687	1.76555
3629.55830	1.80918
3627.62974	1.86507
3625.70117	1.91466
3623.77261	1.94639
3621.84404	1.97681
3619.91548	2.01282
3617.98691	2.05777
3616.05835	2.10101
3614.12979	2.13680
3612.20122	2.17533
3610.27266	2.21544
3608.34409	2.25685
3606.41553	2.30045
3604.48696	2.33950
3602.55840	2.37453
3600.62983	2.41276
3598.70127	2.45342
3596.77271	2.49278
3594.84414	2.53336
3592.91558	2.57484
3590.98701	2.61281
3589.05845	2.64850
3587.12988	2.69164
3585.20132	2.73812
3583.27275	2.77683
3581.34419	2.81359
3579.41562	2.85337
3577.48706	2.89401
3575.55850	2.93390
3573.62993	2.97596
3571.70137	3.01899
3569.77280	3.06110
3567.84424	3.10565
3565.91567	3.15824
3563.98711	3.20673
3562.05854	3.24519
3560.12998	3.28487
3558.20142	3.32898
3556.27285	3.37467
3554.34429	3.41878
3552.41572	3.46445
3550.48716	3.51322
3548.55859	3.55974
3546.63003	3.60296
3544.70146	3.64809
3542.77290	3.69488
3540.84434	3.73984
3538.91577	3.78415
3536.98721	3.82974
3535.05864	3.88001
3533.13008	3.93200
3531.20151	3.98028
3529.27295	4.02697
3527.34438	4.07754
3525.41582	4.12904
3523.48726	4.17711
3521.55869	4.22530
3519.63013	4.27196
3517.70156	4.31480
3515.77300	4.35738
3513.84443	4.40260
3511.91587	4.44993
3509.98730	4.50071
3508.05874	4.55356
3506.13018	4.60165
3504.20161	4.64734
3502.27305	4.69497
3500.34448	4.73980
3498.41592	4.78395
3496.48735	4.83312
3494.55879	4.88573
3492.63022	4.93857
3490.70166	4.98920
3488.77310	5.03894
3486.84453	5.08666
3484.91597	5.12881
3482.98740	5.17164
3481.05884	5.22265
3479.13027	5.27660
3477.20171	5.32642
3475.27314	5.37530
3473.34458	5.43258
3471.41602	5.49009
3469.48745	5.53362
3467.55889	5.57751
3465.63032	5.62495
3463.70176	5.66452
3461.77319	5.69852
3459.84463	5.73715
3457.91606	5.79524
3455.98750	5.86948
3454.05894	5.93346
3452.13037	5.97558
3450.20181	6.01402
3448.27324	6.06644
3446.34468	6.13205
3444.41611	6.18794
3442.48755	6.22507
3440.55898	6.26751
3438.63042	6.32210
3436.70186	6.35970
3434.77329	6.38364
3432.84473	6.43051
3430.91616	6.50398
3428.98760	6.58959
3427.05903	6.66507
3425.13047	6.71328
3423.20190	6.74521
3421.27334	6.78144
3419.34478	6.81674
3417.41621	6.85265
3415.48765	6.90861
3413.55908	6.97931
3411.63052	7.03761
3409.70195	7.06953
3407.77339	7.11936
3405.84482	7.20125
3403.91626	7.27611
3401.98770	7.32173
3400.05913	7.33799
3398.13057	7.32070
3396.20200	7.30860
3394.27344	7.35886
3392.34487	7.43910
3390.41631	7.51446
3388.48774	7.57498
3386.55918	7.61729
3384.63062	7.63484
3382.70205	7.64764
3380.77349	7.70877
3378.84492	7.78033
3376.91636	7.79522
3374.98779	7.79994
3373.05923	7.85943
3371.13066	7.92722
3369.20210	7.97076
3367.27354	7.97589
3365.34497	7.94221
3363.41641	7.90566
3361.48784	7.91197
3359.55928	7.99445
3357.63071	8.06630
3355.70215	8.07819
3353.77358	8.07166
3351.84502	8.06991
3349.91646	8.07004
3347.98789	8.06766
3346.05933	8.06674
3344.13076	8.09340
3342.20220	8.14151
3340.27363	8.13943
3338.34507	8.07724
3336.41650	8.00935
3334.48794	8.02238
3332.55937	8.07993
3330.63081	8.13002
3328.70225	8.20908
3326.77368	8.24791
3324.84512	8.22549
3322.91655	8.22020
3320.98799	8.23084
3319.05942	8.19262
3317.13086	8.18098
3315.20229	8.31671
3313.27373	8.49282
3311.34517	8.41097
3309.41660	8.14121
3307.48804	8.03381
3305.55947	8.17151
3303.63091	8.31463
3301.70234	8.24465
3299.77378	8.17024
3297.84521	8.24842
3295.91665	8.39061
3293.98809	8.48624
3292.05952	8.51919
3290.13096	8.50622
3288.20239	8.44073
3286.27383	8.33029
3284.34526	8.22351
3282.41670	8.22580
3280.48813	8.35491
3278.55957	8.46328
3276.63101	8.38220
3274.70244	8.18467
3272.77388	8.03639
3270.84531	8.00485
3268.91675	8.08218
3266.98818	8.15334
3265.05962	8.17618
3263.13105	8.21044
3261.20249	8.21240
3259.27393	8.16294
3257.34536	8.12590
3255.41680	8.13144
3253.48823	8.18172
3251.55967	8.22954
3249.63110	8.24800
3247.70254	8.27630
3245.77397	8.27933
3243.84541	8.23504
3241.91685	8.26150
3239.98828	8.41178
3238.05972	8.56899
3236.13115	8.63411
3234.20259	8.56254
3232.27402	8.38118
3230.34546	8.24329
3228.41689	8.22229
3226.48833	8.24797
3224.55977	8.27087
3222.63120	8.30128
3220.70264	8.27488
3218.77407	8.23969
3216.84551	8.27969
3214.91694	8.27493
3212.98838	8.16004
3211.05981	8.05701
3209.13125	8.01437
3207.20269	8.00765
3205.27412	8.02175
3203.34556	7.95440
3201.41699	7.81611
3199.48843	7.77247
3197.55986	7.83341
3195.63130	7.85920
3193.70273	7.79358
3191.77417	7.72579
3189.84561	7.65819
3187.91704	7.53948
3185.98848	7.46215
3184.05991	7.45913
3182.13135	7.42498
3180.20278	7.34875
3178.27422	7.29273
3176.34565	7.27762
3174.41709	7.25651
3172.48853	7.16814
3170.55996	7.06755
3168.63140	7.01126
3166.70283	6.96441
3164.77427	6.90377
3162.84570	6.83219
3160.91714	6.73506
3158.98857	6.63349
3157.06001	6.56513
3155.13145	6.51021
3153.20288	6.45293
3151.27432	6.41100
3149.34575	6.36185
3147.41719	6.28963
3145.48862	6.21399
3143.56006	6.13182
3141.63149	6.04743
3139.70293	5.97049
3137.77437	5.89019
3135.84580	5.80953
3133.91724	5.73618
3131.98867	5.66279
3130.06011	5.59034
3128.13154	5.52330
3126.20298	5.45574
3124.27441	5.38262
3122.34585	5.30202
3120.41729	5.21707
3118.48872	5.14049
3116.56016	5.07792
3114.63159	5.01595
3112.70303	4.94580
3110.77446	4.87547
3108.84590	4.80986
3106.91733	4.74369
3104.98877	4.67499
3103.06021	4.60671
3101.13164	4.53621
3099.20308	4.46277
3097.27451	4.39205
3095.34595	4.32535
3093.41738	4.25976
3091.48882	4.19525
3089.56025	4.13161
3087.63169	4.06808
3085.70312	4.00516
3083.77456	3.94204
3081.84600	3.87985
3079.91743	3.81952
3077.98887	3.76006
3076.06030	3.69994
3074.13174	3.63863
3072.20317	3.57813
3070.27461	3.51896
3068.34604	3.46070
3066.41748	3.40249
3064.48892	3.34434
3062.56035	3.28814
3060.63179	3.23377
3058.70322	3.17989
3056.77466	3.12519
3054.84609	3.06993
3052.91753	3.01751
3050.98896	2.96908
3049.06040	2.92196
3047.13184	2.87391
3045.20327	2.82431
3043.27471	2.77405
3041.34614	2.72501
3039.41758	2.67840
3037.48901	2.63342
3035.56045	2.58828
3033.63188	2.54273
3031.70332	2.49781
3029.77476	2.45403
3027.84619	2.41073
3025.91763	2.36767
3023.98906	2.32555
3022.06050	2.28464
3020.13193	2.24466
3018.20337	2.20520
3016.27480	2.16598
3014.34624	2.12718
3012.41768	2.08929
3010.48911	2.05238
3008.56055	2.01610
3006.63198	1.97988
3004.70342	1.94393
3002.77485	1.90916
3000.84629	1.87522
2998.91772	1.84135
2996.98916	1.80801
2995.06060	1.77543
2993.13203	1.74334
2991.20347	1.71170
2989.27490	1.68050
2987.34634	1.64986
2985.41777	1.62000
2983.48921	1.59068
2981.56064	1.56152
2979.63208	1.53261
2977.70352	1.50435
2975.77495	1.47684
2973.84639	1.44947
2971.91782	1.42185
2969.98926	1.39485
2968.06069	1.36913
2966.13213	1.34404
2964.20356	1.31915
2962.27500	1.29456
2960.34644	1.27041
2958.41787	1.24688
2956.48931	1.22397
2954.56074	1.20172
2952.63218	1.18009
2950.70361	1.15876
2948.77505	1.13749
2946.84648	1.11621
2944.91792	1.09536
2942.98936	1.07511
2941.06079	1.05518
2939.13223	1.03576
2937.20366	1.01690
2935.27510	0.99842
2933.34653	0.98049
2931.41797	0.96279
2929.48940	0.94491
2927.56084	0.92734
2925.63228	0.91050
2923.70371	0.89436
2921.77515	0.87877
2919.84658	0.86310
2917.91802	0.84708
2915.98945	0.83131
2914.06089	0.81609
2912.13232	0.80118
2910.20376	0.78653
2908.27520	0.77232
2906.34663	0.75868
2904.41807	0.74549
2902.48950	0.73260
2900.56094	0.72018
2898.63237	0.70828
2896.70381	0.69654
2894.77524	0.68460
2892.84668	0.67258
2890.91812	0.66109
2888.98955	0.65015
2887.06099	0.63911
2885.13242	0.62783
2883.20386	0.61673
2881.27529	0.60606
2879.34673	0.59561
2877.41816	0.58525
2875.48960	0.57512
2873.56104	0.56521
2871.63247	0.55538
2869.70391	0.54573
2867.77534	0.53623
2865.84678	0.52677
2863.91821	0.51765
2861.98965	0.50902
2860.06108	0.50046
2858.13252	0.49183
2856.20396	0.48332
2854.27539	0.47514
2852.34683	0.46730
2850.41826	0.45964
2848.48970	0.45209
2846.56113	0.44469
2844.63257	0.43753
2842.70400	0.43082
2840.77544	0.42463
2838.84687	0.41870
2836.91831	0.41284
2834.98975	0.40698
2833.06118	0.40097
2831.13262	0.39493
2829.20405	0.38906
2827.27549	0.38335
2825.34692	0.37774
2823.41836	0.37220
2821.48979	0.36673
2819.56123	0.36128
2817.63267	0.35584
2815.70410	0.35041
2813.77554	0.34502
2811.84697	0.33981
2809.91841	0.33492
2807.98984	0.33019
2806.06128	0.32529
2804.13271	0.32036
2802.20415	0.31572
2800.27559	0.31127
2798.34702	0.30667
2796.41846	0.30214
2794.48989	0.29795
2792.56133	0.29390
2790.63276	0.28989
2788.70420	0.28584
2786.77563	0.28175
2784.84707	0.27784
2782.91851	0.27411
2780.98994	0.27044
2779.06138	0.26679
2777.13281	0.26327
2775.20425	0.25988
2773.27568	0.25646
2771.34712	0.25313
2769.41855	0.24994
2767.48999	0.24674
2765.56143	0.24361
2763.63286	0.24061
2761.70430	0.23762
2759.77573	0.23470
2757.84717	0.23186
2755.91860	0.22910
2753.99004	0.22633
2752.06147	0.22347
2750.13291	0.22074
2748.20435	0.21822
2746.27578	0.21570
2744.34722	0.21311
2742.41865	0.21062
2740.49009	0.20837
2738.56152	0.20618
2736.63296	0.20389
2734.70439	0.20165
2732.77583	0.19967
2730.84727	0.19778
2728.91870	0.19572
2726.99014	0.19369
2725.06157	0.19184
2723.13301	0.19001
2721.20444	0.18818
2719.27588	0.18642
2717.34731	0.18474
2715.41875	0.18301
2713.49019	0.18127
2711.56162	0.17958
2709.63306	0.17796
2707.70449	0.17634
2705.77593	0.17471
2703.84736	0.17310
2701.91880	0.17165
2699.99023	0.17042
2698.06167	0.16924
2696.13311	0.16798
2694.20454	0.16664
2692.27598	0.16520
2690.34741	0.16376
2688.41885	0.16250
2686.49028	0.16142
2684.56172	0.16040
2682.63315	0.15934
2680.70459	0.15819
2678.77603	0.15708
2676.84746	0.15613
2674.91890	0.15528
2672.99033	0.15441
2671.06177	0.15344
2669.13320	0.15242
2667.20464	0.15155
2665.27607	0.15089
2663.34751	0.15026
2661.41895	0.14954
2659.49038	0.14872
2657.56182	0.14788
2655.63325	0.14701
2653.70469	0.14618
2651.77612	0.14554
2649.84756	0.14513
2647.91899	0.14480
2645.99043	0.14442
2644.06187	0.14396
2642.13330	0.14353
2640.20474	0.14316
2638.27617	0.14267
2636.34761	0.14211
2634.41904	0.14174
2632.49048	0.14148
2630.56191	0.14112
2628.63335	0.14077
2626.70479	0.14058
2624.77622	0.14039
2622.84766	0.14010
2620.91909	0.13984
2618.99053	0.13969
2617.06196	0.13953
2615.13340	0.13945
2613.20483	0.13961
2611.27627	0.13977
2609.34771	0.13972
2607.41914	0.13967
2605.49058	0.13975
2603.56201	0.13979
2601.63345	0.13976
2599.70488	0.13973
2597.77632	0.13976
2595.84775	0.13990
2593.91919	0.14000
2591.99062	0.14004
2590.06206	0.14015
2588.13350	0.14034
2586.20493	0.14065
2584.27637	0.14116
2582.34780	0.14170
2580.41924	0.14206
2578.49067	0.14225
2576.56211	0.14246
2574.63354	0.14281
2572.70498	0.14326
2570.77642	0.14370
2568.84785	0.14412
2566.91929	0.14448
2564.99072	0.14482
2563.06216	0.14522
2561.13359	0.14573
2559.20503	0.14631
2557.27646	0.14698
2555.34790	0.14756
2553.41934	0.14804
2551.49077	0.14861
2549.56221	0.14934
2547.63364	0.15003
2545.70508	0.15052
2543.77651	0.15099
2541.84795	0.15169
2539.91938	0.15246
2537.99082	0.15320
2536.06226	0.15390
2534.13369	0.15451
2532.20513	0.15511
2530.27656	0.15581
2528.34800	0.15661
2526.41943	0.15745
2524.49087	0.15832
2522.56230	0.15909
2520.63374	0.15967
2518.70518	0.16033
2516.77661	0.16128
2514.84805	0.16221
2512.91948	0.16295
2510.99092	0.16365
2509.06235	0.16448
2507.13379	0.16539
2505.20522	0.16629
2503.27666	0.16723
2501.34810	0.16821
2499.41953	0.16910
2497.49097	0.16992
2495.56240	0.17074
2493.63384	0.17165
2491.70527	0.17269
2489.77671	0.17366
2487.84814	0.17447
2485.91958	0.17529
2483.99102	0.17617
2482.06245	0.17709
2480.13389	0.17805
2478.20532	0.17905
2476.27676	0.18001
2474.34819	0.18092
2472.41963	0.18187
2470.49106	0.18289
2468.56250	0.18379
2466.63394	0.18460
2464.70537	0.18554
2462.77681	0.18657
2460.84824	0.18756
2458.91968	0.18852
2456.99111	0.18946
2455.06255	0.19035
2453.13398	0.19125
2451.20542	0.19217
2449.27686	0.19318
2447.34829	0.19418
2445.41973	0.19515
2443.49116	0.19624
2441.56260	0.19744
2439.63403	0.19863
2437.70547	0.19975
2435.77690	0.20069
2433.84834	0.20163
2431.91978	0.20270
2429.99121	0.20377
2428.06265	0.20480
2426.13408	0.20590
2424.20552	0.20707
2422.27695	0.20828
2420.34839	0.20945
2418.41982	0.21041
2416.49126	0.21129
2414.56270	0.21243
2412.63413	0.21377
2410.70557	0.21499
2408.77700	0.21608
2406.84844	0.21731
2404.91987	0.21866
2402.99131	0.21985
2401.06274	0.22089
2399.13418	0.22203
2397.20562	0.22335
2395.27705	0.22475
2393.34849	0.22608
2391.41992	0.22742
2389.49136	0.22899
2387.56279	0.23132
2385.63423	0.23523
2383.70566	0.24110
2381.77710	0.24887
2379.84854	0.25849
2377.91997	0.27008
2375.99141	0.28374
2374.06284	0.29960
2372.13428	0.31794
2370.20571	0.33866
2368.27715	0.36035
2366.34858	0.38075
2364.42002	0.39790
2362.49146	0.41057
2360.56289	0.41851
2358.63433	0.42013
2356.70576	0.41164
2354.77720	0.39446
2352.84863	0.37352
2350.92007	0.35332
2348.99150	0.34179
2347.06294	0.34247
2345.13437	0.35539
2343.20581	0.37438
2341.27725	0.38605
2339.34868	0.38836
2337.42012	0.38732
2335.49155	0.38575
2333.56299	0.38340
2331.63442	0.38056
2329.70586	0.37806
2327.77729	0.37574
2325.84873	0.37127
2323.92017	0.36440
2321.99160	0.35760
2320.06304	0.35167
2318.13447	0.34576
2316.20591	0.34041
2314.27734	0.33678
2312.34878	0.33479
2310.42021	0.33309
2308.49165	0.33046
2306.56309	0.32711
2304.63452	0.32407
2302.70596	0.32234
2300.77739	0.32181
2298.84883	0.32150
2296.92026	0.32110
2294.99170	0.32085
2293.06313	0.32063
2291.13457	0.32028
2289.20601	0.32003
2287.27744	0.31994
2285.34888	0.32000
2283.42031	0.32065
2281.49175	0.32225
2279.56318	0.32458
2277.63462	0.32718
2275.70605	0.32971
2273.77749	0.33204
2271.84893	0.33412
2269.92036	0.33608
2267.99180	0.33800
2266.06323	0.33989
2264.13467	0.34172
2262.20610	0.34356
2260.27754	0.34539
2258.34897	0.34720
2256.42041	0.34893
2254.49185	0.35055
2252.56328	0.35215
2250.63472	0.35385
2248.70615	0.35575
2246.77759	0.35778
2244.84902	0.35985
2242.92046	0.36197
2240.99189	0.36414
2239.06333	0.36633
2237.13477	0.36848
2235.20620	0.37048
2233.27764	0.37250
2231.34907	0.37467
2229.42051	0.37685
2227.49194	0.37902
2225.56338	0.38120
2223.63481	0.38337
2221.70625	0.38548
2219.77769	0.38755
2217.84912	0.38974
2215.92056	0.39205
2213.99199	0.39429
2212.06343	0.39641
2210.13486	0.39850
2208.20630	0.40053
2206.27773	0.40250
2204.34917	0.40443
2202.42061	0.40637
2200.49204	0.40836
2198.56348	0.41047
2196.63491	0.41258
2194.70635	0.41455
2192.77778	0.41646
2190.84922	0.41836
2188.92065	0.42013
2186.99209	0.42192
2185.06353	0.42388
2183.13496	0.42578
2181.20640	0.42746
2179.27783	0.42907
2177.34927	0.43076
2175.42070	0.43241
2173.49214	0.43395
2171.56357	0.43542
2169.63501	0.43676
2167.70645	0.43800
2165.77788	0.43928
2163.84932	0.44055
2161.92075	0.44168
2159.99219	0.44271
2158.06362	0.44372
2156.13506	0.44475
2154.20649	0.44576
2152.27793	0.44664
2150.34937	0.44742
2148.42080	0.44817
2146.49224	0.44887
2144.56367	0.44943
2142.63511	0.44988
2140.70654	0.45020
2138.77798	0.45046
2136.84941	0.45069
2134.92085	0.45083
2132.99229	0.45091
2131.06372	0.45104
2129.13516	0.45105
2127.20659	0.45079
2125.27803	0.45039
2123.34946	0.45002
2121.42090	0.44971
2119.49233	0.44930
2117.56377	0.44868
2115.63521	0.44784
2113.70664	0.44698
2111.77808	0.44618
2109.84951	0.44534
2107.92095	0.44446
2105.99238	0.44359
2104.06382	0.44263
2102.13525	0.44149
2100.20669	0.44027
2098.27812	0.43892
2096.34956	0.43744
2094.42100	0.43598
2092.49243	0.43455
2090.56387	0.43291
2088.63530	0.43108
2086.70674	0.42936
2084.77817	0.42769
2082.84961	0.42593
2080.92104	0.42410
2078.99248	0.42231
2077.06392	0.42039
2075.13535	0.41823
2073.20679	0.41602
2071.27822	0.41386
2069.34966	0.41168
2067.42109	0.40954
2065.49253	0.40741
2063.56396	0.40513
2061.63540	0.40274
2059.70684	0.40034
2057.77827	0.39791
2055.84971	0.39543
2053.92114	0.39286
2051.99258	0.39037
2050.06401	0.38796
2048.13545	0.38543
2046.20688	0.38274
2044.27832	0.38007
2042.34976	0.37749
2040.42119	0.37489
2038.49263	0.37224
2036.56406	0.36963
2034.63550	0.36700
2032.70693	0.36429
2030.77837	0.36155
2028.84980	0.35882
2026.92124	0.35612
2024.99268	0.35344
2023.06411	0.35077
2021.13555	0.34812
2019.20698	0.34554
2017.27842	0.34289
2015.34985	0.34000
2013.42129	0.33704
2011.49272	0.33421
2009.56416	0.33157
2007.63560	0.32906
2005.70703	0.32656
2003.77847	0.32394
2001.84990	0.32128
1999.92134	0.31874
1997.99277	0.31626
1996.06421	0.31370
1994.13564	0.31125
1992.20708	0.30897
1990.27852	0.30655
1988.34995	0.30401
1986.42139	0.30139
1984.49282	0.29875
1982.56426	0.29633
1980.63569	0.29405
1978.70713	0.29174
1976.77856	0.28945
1974.85000	0.28730
1972.92144	0.28515
1970.99287	0.28300
1969.06431	0.28107
1967.13574	0.27929
1965.20718	0.27728
1963.27861	0.27509
1961.35005	0.27298
1959.42148	0.27105
1957.49292	0.26924
1955.56436	0.26746
1953.63579	0.26567
1951.70723	0.26384
1949.77866	0.26210
1947.85010	0.26062
1945.92153	0.25938
1943.99297	0.25832
1942.06440	0.25712
1940.13584	0.25537
1938.20728	0.25353
1936.27871	0.25211
1934.35015	0.25089
1932.42158	0.24967
1930.49302	0.24837
1928.56445	0.24712
1926.63589	0.24607
1924.70732	0.24534
1922.77876	0.24464
1920.85020	0.24362
1918.92163	0.24268
1916.99307	0.24188
1915.06450	0.24081
1913.13594	0.23974
1911.20737	0.23906
1909.27881	0.23853
1907.35024	0.23773
1905.42168	0.23680
1903.49312	0.23603
1901.56455	0.23537
1899.63599	0.23475
1897.70742	0.23433
1895.77886	0.23417
1893.85029	0.23400
1891.92173	0.23374
1889.99316	0.23365
1888.06460	0.23337
1886.13604	0.23280
1884.20747	0.23234
1882.27891	0.23202
1880.35034	0.23179
1878.42178	0.23173
1876.49321	0.23181
1874.56465	0.23190
1872.63608	0.23217
1870.70752	0.23288
1868.77896	0.23396
1866.85039	0.23423
1864.92183	0.23354
1862.99326	0.23304
1861.06470	0.23307
1859.13613	0.23340
1857.20757	0.23374
1855.27900	0.23416
1853.35044	0.23461
1851.42187	0.23513
1849.49331	0.23581
1847.56475	0.23679
1845.63618	0.23798
1843.70762	0.23902
1841.77905	0.23934
1839.85049	0.23943
1837.92192	0.24017
1835.99336	0.24117
1834.06479	0.24211
1832.13623	0.24327
1830.20767	0.24507
1828.27910	0.24670
1826.35054	0.24755
1824.42197	0.24856
1822.49341	0.24953
1820.56484	0.25044
1818.63628	0.25163
1816.70771	0.25322
1814.77915	0.25496
1812.85059	0.25695
1810.92202	0.25928
1808.99346	0.26140
1807.06489	0.26311
1805.13633	0.26483
1803.20776	0.26712
1801.27920	0.26991
1799.35063	0.27285
1797.42207	0.27533
1795.49351	0.27785
1793.56494	0.28108
1791.63638	0.28494
1789.70781	0.28791
1787.77925	0.28995
1785.85068	0.29285
1783.92212	0.29650
1781.99355	0.30053
1780.06499	0.30481
1778.13643	0.30896
1776.20786	0.31301
1774.27930	0.31787
1772.35073	0.32446
1770.42217	0.33084
1768.49360	0.33555
1766.56504	0.34010
1764.63647	0.34511
1762.70791	0.35108
1760.77935	0.35880
1758.85078	0.36590
1756.92222	0.37293
1754.99365	0.38052
1753.06509	0.38762
1751.13652	0.39655
1749.20796	0.40780
1747.27939	0.41830
1745.35083	0.42713
1743.42227	0.43650
1741.49370	0.44699
1739.56514	0.45942
1737.63657	0.47185
1735.70801	0.48297
1733.77944	0.49983
1731.85088	0.51915
1729.92231	0.53371
1727.99375	0.54868
1726.06519	0.56522
1724.13662	0.58366
1722.20806	0.60366
1720.27949	0.62225
1718.35093	0.64449
1716.42236	0.67724
1714.49380	0.70704
1712.56523	0.73026
1710.63667	0.75310
1708.70811	0.77828
1706.77954	0.80719
1704.85098	0.84171
1702.92241	0.87241
1700.99385	0.90272
1699.06528	0.94770
1697.13672	0.98836
1695.20815	1.02878
1693.27959	1.06729
1691.35103	1.09833
1689.42246	1.13468
1687.49390	1.17322
1685.56533	1.21058
1683.63677	1.26748
1681.70820	1.32467
1679.77964	1.36070
1677.85107	1.39558
1675.92251	1.43606
1673.99395	1.48626
1672.06538	1.53116
1670.13682	1.57536
1668.20825	1.63066
1666.27969	1.67320
1664.35112	1.70864
1662.42256	1.75270
1660.49399	1.80093
1658.56543	1.83842
1656.63687	1.87011
1654.70830	1.90224
1652.77974	1.95865
1650.85117	2.01150
1648.92261	2.03061
1646.99404	2.05791
1645.06548	2.09172
1643.13691	2.11398
1641.20835	2.12749
1639.27979	2.14003
1637.35122	2.15176
1635.42266	2.15955
1633.49409	2.15565
1631.56553	2.14374
1629.63696	2.12975
1627.70840	2.10742
1625.77983	2.08122
1623.85127	2.04731
1621.92271	2.00376
1619.99414	1.96378
1618.06558	1.92451
1616.13701	1.86684
1614.20845	1.80625
1612.27988	1.76060
1610.35132	1.71376
1608.42275	1.66193
1606.49419	1.60974
1604.56562	1.56210
1602.63706	1.51675
1600.70850	1.47186
1598.77993	1.42962
1596.85137	1.38938
1594.92280	1.35014
1592.99424	1.31209
1591.06567	1.27688
1589.13711	1.24323
1587.20854	1.21127
1585.27998	1.18136
1583.35142	1.15304
1581.42285	1.12683
1579.49429	1.10422
1577.56572	1.08338
1575.63716	1.05616
1573.70859	1.03104
1571.78003	1.01501
1569.85146	0.99796
1567.92290	0.97714
1565.99434	0.95983
1564.06577	0.94501
1562.13721	0.93265
1560.20864	0.92257
1558.28008	0.90417
1556.35151	0.88531
1554.42295	0.87322
1552.49438	0.86164
1550.56582	0.85065
1548.63726	0.83978
1546.70869	0.83056
1544.78013	0.82302
1542.85156	0.81615
1540.92300	0.80814
1538.99443	0.79443
1537.06587	0.78349
1535.13730	0.77722
1533.20874	0.77018
1531.28018	0.76183
1529.35161	0.75538
1527.42305	0.74999
1525.49448	0.74470
1523.56592	0.73984
1521.63735	0.73459
1519.70879	0.72804
1517.78022	0.72221
1515.85166	0.71632
1513.92310	0.71038
1511.99453	0.70575
1510.06597	0.70247
1508.13740	0.70043
1506.20884	0.69597
1504.28027	0.68924
1502.35171	0.68485
1500.42314	0.68184
1498.49458	0.67930
1496.56602	0.67607
1494.63745	0.67223
1492.70889	0.66940
1490.78032	0.66779
1488.85176	0.66569
1486.92319	0.66208
1484.99463	0.65848
1483.06606	0.65572
1481.13750	0.65342
1479.20894	0.65118
1477.28037	0.64930
1475.35181	0.64799
1473.42324	0.64671
1471.49468	0.64380
1469.56611	0.64003
1467.63755	0.63723
1465.70898	0.63522
1463.78042	0.63309
1461.85186	0.63099
1459.92329	0.62970
1457.99473	0.62900
1456.06616	0.62667
1454.13760	0.62282
1452.20903	0.61986
1450.28047	0.61762
1448.35190	0.61582
1446.42334	0.61394
1444.49478	0.61176
1442.56621	0.60967
1440.63765	0.60798
1438.70908	0.60703
1436.78052	0.60637
1434.85195	0.60499
1432.92339	0.60326
1430.99482	0.60184
1429.06626	0.60035
1427.13770	0.59877
1425.20913	0.59760
1423.28057	0.59658
1421.35200	0.59551
1419.42344	0.59469
1417.49487	0.59328
1415.56631	0.59076
1413.63774	0.58838
1411.70918	0.58650
1409.78062	0.58487
1407.85205	0.58340
1405.92349	0.58222
1403.99492	0.58085
1402.06636	0.57922
1400.13779	0.57795
1398.20923	0.57700
1396.28066	0.57603
1394.35210	0.57452
1392.42354	0.57246
1390.49497	0.57091
1388.56641	0.57014
1386.63784	0.56933
1384.70928	0.56801
1382.78071	0.56668
1380.85215	0.56563
1378.92358	0.56488
1376.99502	0.56436
1375.06646	0.56390
1373.13789	0.56310
1371.20933	0.56199
1369.28076	0.56099
1367.35220	0.56008
1365.42363	0.55930
1363.49507	0.55881
1361.56650	0.55815
1359.63794	0.55701
1357.70937	0.55585
1355.78081	0.55482
1353.85225	0.55375
1351.92368	0.55267
1349.99512	0.55168
1348.06655	0.55076
1346.13799	0.54978
1344.20942	0.54873
1342.28086	0.54789
1340.35229	0.54740
1338.42373	0.54668
1336.49517	0.54547
1334.56660	0.54418
1332.63804	0.54307
1330.70947	0.54211
1328.78091	0.54130
1326.85234	0.54068
1324.92378	0.54011
1322.99521	0.53945
1321.06665	0.53882
1319.13809	0.53827
1317.20952	0.53757
1315.28096	0.53673
1313.35239	0.53589
1311.42383	0.53496
1309.49526	0.53395
1307.56670	0.53305
1305.63813	0.53222
1303.70957	0.53127
1301.78101	0.53035
1299.85244	0.52957
1297.92388	0.52882
1295.99531	0.52811
1294.06675	0.52740
1292.13818	0.52665
1290.20962	0.52596
1288.28105	0.52527
1286.35249	0.52464
1284.42393	0.52424
1282.49536	0.52390
1280.56680	0.52343
1278.63823	0.52287
1276.70967	0.52231
1274.78110	0.52185
1272.85254	0.52153
1270.92397	0.52117
1268.99541	0.52060
1267.06685	0.52008
1265.13828	0.51984
1263.20972	0.51972
1261.28115	0.51950
1259.35259	0.51912
1257.42402	0.51866
1255.49546	0.51828
1253.56689	0.51798
1251.63833	0.51772
1249.70977	0.51748
1247.78120	0.51716
1245.85264	0.51678
1243.92407	0.51636
1241.99551	0.51582
1240.06694	0.51512
1238.13838	0.51437
1236.20981	0.51378
1234.28125	0.51347
1232.35269	0.51319
1230.42412	0.51267
1228.49556	0.51202
1226.56699	0.51143
1224.63843	0.51078
1222.70986	0.51000
1220.78130	0.50922
1218.85273	0.50851
1216.92417	0.50784
1214.99561	0.50728
1213.06704	0.50678
1211.13848	0.50619
1209.20991	0.50558
1207.28135	0.50504
1205.35278	0.50457
1203.42422	0.50411
1201.49565	0.50368
1199.56709	0.50320
1197.63853	0.50260
1195.70996	0.50195
1193.78140	0.50124
1191.85283	0.50051
1189.92427	0.50000
1187.99570	0.49975
1186.06714	0.49961
1184.13857	0.49959
1182.21001	0.49968
1180.28145	0.49985
1178.35288	0.50011
1176.42432	0.50041
1174.49575	0.50081
1172.56719	0.50146
1170.63862	0.50221
1168.71006	0.50286
1166.78149	0.50347
1164.85293	0.50404
1162.92437	0.50451
1160.99580	0.50495
1159.06724	0.50528
1157.13867	0.50519
1155.21011	0.50449
1153.28154	0.50335
1151.35298	0.50195
1149.42441	0.50030
1147.49585	0.49833
1145.56729	0.49601
1143.63872	0.49350
1141.71016	0.49105
1139.78159	0.48884
1137.85303	0.48697
1135.92446	0.48544
1133.99590	0.48402
1132.06733	0.48270
1130.13877	0.48165
1128.21021	0.48075
1126.28164	0.47992
1124.35308	0.47923
1122.42451	0.47866
1120.49595	0.47816
1118.56738	0.47778
1116.63882	0.47775
1114.71025	0.47811
1112.78169	0.47876
1110.85312	0.47957
1108.92456	0.48019
1106.99600	0.48069
1105.06743	0.48148
1103.13887	0.48266
1101.21030	0.48414
1099.28174	0.48594
1097.35317	0.48811
1095.42461	0.49077
1093.49604	0.49417
1091.56748	0.49856
1089.63892	0.50416
1087.71035	0.51114
1085.78179	0.51918
1083.85322	0.52737
1081.92466	0.53461
1079.99609	0.54004
1078.06753	0.54328
1076.13896	0.54398
1074.21040	0.54171
1072.28184	0.53678
1070.35327	0.53035
1068.42471	0.52355
1066.49614	0.51684
1064.56758	0.51042
1062.63901	0.50475
1060.71045	0.50008
1058.78188	0.49628
1056.85332	0.49297
1054.92476	0.48991
1052.99619	0.48730
1051.06763	0.48514
1049.13906	0.48344
1047.21050	0.48247
1045.28193	0.48234
1043.35337	0.48273
1041.42480	0.48299
1039.49624	0.48287
1037.56768	0.48271
1035.63911	0.48259
1033.71055	0.48242
1031.78198	0.48218
1029.85342	0.48162
1027.92485	0.48068
1025.99629	0.47990
1024.06772	0.47959
1022.13916	0.47947
1020.21060	0.47939
1018.28203	0.47943
1016.35347	0.47954
1014.42490	0.47965
1012.49634	0.47987
1010.56777	0.48034
1008.63921	0.48105
1006.71064	0.48194
1004.78208	0.48313
1002.85352	0.48495
1000.92495	0.48755
998.99639	0.49070
997.06782	0.49424
995.13926	0.49809
993.21069	0.50200
991.28213	0.50539
989.35356	0.50756
987.42500	0.50856
985.49644	0.50911
983.56787	0.50955
981.63931	0.50995
979.71074	0.51071
977.78218	0.51235
975.85361	0.51488
973.92505	0.51763
971.99648	0.52039
970.06792	0.52370
968.13936	0.52764
966.21079	0.53180
964.28223	0.53594
962.35366	0.54040
960.42510	0.54555
958.49653	0.55132
956.56797	0.55739
954.63940	0.56341
952.71084	0.56911
950.78228	0.57471
948.85371	0.58066
946.92515	0.58679
944.99658	0.59274
943.06802	0.59892
941.13945	0.60548
939.21089	0.61174
937.28232	0.61738
935.35376	0.62298
933.42520	0.62905
931.49663	0.63482
929.56807	0.64006
927.63950	0.64561
925.71094	0.65181
923.78237	0.65858
921.85381	0.66518
919.92524	0.67114
917.99668	0.67761
916.06812	0.68496
914.13955	0.69230
912.21099	0.69960
910.28242	0.70761
908.35386	0.71626
906.42529	0.72442
904.49673	0.73170
902.56816	0.73953
900.63960	0.74935
898.71104	0.76059
896.78247	0.77156
894.85391	0.78107
892.92534	0.78928
890.99678	0.79763
889.06821	0.80734
887.13965	0.81832
885.21108	0.83026
883.28252	0.84271
881.35396	0.85414
879.42539	0.86438
877.49683	0.87531
875.56826	0.88787
873.63970	0.90096
871.71113	0.91231
869.78257	0.92168
867.85400	0.93187
865.92544	0.94386
863.99687	0.95621
862.06831	0.96738
860.13975	0.97708
858.21118	0.98790
856.28262	1.00044
854.35405	1.01134
852.42549	1.02049
850.49692	1.03242
848.56836	1.04716
846.63979	1.05958
844.71123	1.06920
842.78267	1.07916
840.85410	1.09027
838.92554	1.10173
836.99697	1.11461
835.06841	1.12918
833.13984	1.14104
831.21128	1.14930
829.28271	1.15923
827.35415	1.17212
825.42559	1.18672
823.49702	1.20533
821.56846	1.22175
819.63989	1.23287
817.71133	1.24909
815.78276	1.26298
813.85420	1.26440
811.92563	1.26673
809.99707	1.27535
808.06851	1.28868
806.13994	1.31221
804.21138	1.33150
802.28281	1.33958
800.35425	1.36234
798.42568	1.41054
796.49712	1.46084
794.56855	1.46319
792.63999	1.42693
790.71143	1.42309
788.78286	1.46429
786.85430	1.50917
784.92573	1.51501
782.99717	1.45898
781.06860	1.42275
779.14004	1.50601
777.21147	1.73254
775.28291	2.07305
773.35435	3.47646
771.42578	4.62855
769.49722	2.73701
767.56865	1.98862
765.64009	1.71476
763.71152	1.61083
761.78296	1.48077
759.85439	1.30024
757.92583	1.20069
755.99727	1.23337
754.06870	1.45034
752.14014	1.76205
750.21157	1.56184
748.28301	1.35580
746.35444	1.28047
744.42588	1.22935
742.49731	1.07402
740.56875	0.94756
738.64019	0.95300
736.71162	1.04189
734.78306	1.01342
732.85449	0.90496
730.92593	0.84572
728.99736	0.70603
727.06880	0.48608
725.14023	0.33176
723.21167	0.24461
721.28311	0.17624
719.35454	0.14054
717.42598	0.17460
715.49741	0.30155
713.56885	0.39115
711.64028	0.30094
709.71172	0.17076
707.78315	0.09109
705.85459	0.02495
703.92603	0.00092
701.99746	0.07485
700.06890	0.22595
698.14033	0.38941
696.21177	0.47353
694.28320	0.44088
692.35464	0.38640
690.42607	0.40596
688.49751	0.44373
686.56895	0.36977
684.64038	0.26836
682.71182	0.28162
680.78325	0.25118
678.85469	0.08876
676.92612	-0.01061
674.99756	0.06452
673.06899	0.15724
671.14043	0.15909
669.21187	0.17127
667.28330	0.16785
665.35474	0.11496
663.42617	0.12811
661.49761	0.20668
659.56904	0.14543
657.64048	0.07537
655.71191	0.10354
653.78335	0.17979
651.85479	0.24718
649.92622	0.29983
647.99766	0.34235
646.06909	0.38774
644.14053	0.37380
642.21196	0.25855
640.28340	0.17012
638.35483	0.14962
636.42627	0.14330
634.49771	0.14470
632.56914	0.22778
630.64058	0.38317
628.71201	0.45393
626.78345	0.41422
624.85488	0.34988
622.92632	0.37440
620.99775	0.43511
619.06919	0.37726
617.14062	0.29823
615.21206	0.25467
613.28350	0.19072
611.35493	0.17363
609.42637	0.22726
607.49780	0.20701
605.56924	0.13447
603.64067	0.14476
601.71211	0.17463
599.78354	0.16842
597.85498	0.16141
595.92642	0.21909
593.99785	0.36214
592.06929	0.42595
590.14072	0.29049
588.21216	0.16215
586.28359	0.10585
584.35503	0.14141
582.42646	0.23847
580.49790	0.32971
578.56934	0.30097
576.64077	0.22939
574.71221	0.16502
572.78364	0.13207
570.85508	0.19207
568.92651	0.25855
566.99795	0.21228
565.06938	0.17252
563.14082	0.19407
561.21226	0.22790
559.28369	0.25554
557.35513	0.27168
555.42656	0.20659
553.49800	0.12682
551.56943	0.08521
549.64087	0.05510
547.71230	0.07244
545.78374	0.11597
543.85518	0.10890
541.92661	0.09495
539.99805	0.06923
538.06948	0.03345
536.14092	0.05496
534.21235	0.13774
532.28379	0.20865
530.35522	0.21486
528.42666	0.18245
526.49810	0.15389
524.56953	0.18639
522.64097	0.23689
520.71240	0.16792
518.78384	0.08142
516.85527	0.04860
514.92671	0.04683
512.99814	0.05545
511.06958	0.09322
509.14102	0.17573
507.21245	0.22597
505.28389	0.18532
503.35532	0.17090
501.42676	0.19353
499.49819	0.21422
