3997.91411	0.06847
3995.98555	0.06838
3994.05698	0.06881
3992.12842	0.06959
3990.19985	0.07034
3988.27129	0.07083
3986.34272	0.07088
3984.41416	0.07075
3982.48560	0.07103
3980.55703	0.07165
3978.62847	0.07208
3976.69990	0.07232
3974.77134	0.07243
3972.84277	0.07248
3970.91421	0.07270
3968.98564	0.07298
3967.05708	0.07304
3965.12852	0.07288
3963.19995	0.07290
3961.27139	0.07327
3959.34282	0.07356
3957.41426	0.07343
3955.48569	0.07319
3953.55713	0.07311
3951.62856	0.07320
3949.70000	0.07354
3947.77144	0.07394
3945.84287	0.07403
3943.91431	0.07390
3941.98574	0.07381
3940.05718	0.07368
3938.12861	0.07354
3936.20005	0.07349
3934.27148	0.07383
3932.34292	0.07478
3930.41436	0.07541
3928.48579	0.07505
3926.55723	0.07481
3924.62866	0.07539
3922.70010	0.07560
3920.77153	0.07485
3918.84297	0.07435
3916.91440	0.07453
3914.98584	0.07439
3913.05728	0.07348
3911.12871	0.07276
3909.20015	0.07288
3907.27158	0.07385
3905.34302	0.07530
3903.41445	0.07655
3901.48589	0.07707
3899.55732	0.07667
3897.62876	0.07533
3895.70020	0.07397
3893.77163	0.07372
3891.84307	0.07459
3889.91450	0.07525
3887.98594	0.07495
3886.05737	0.07511
3884.12881	0.07602
3882.20024	0.07653
3880.27168	0.07683
3878.34312	0.07641
3876.41455	0.07526
3874.48599	0.07536
3872.55742	0.07703
3870.62886	0.07877
3868.70029	0.07945
3866.77173	0.07886
3864.84316	0.07857
3862.91460	0.07887
3860.98604	0.07845
3859.05747	0.07798
3857.12891	0.07868
3855.20034	0.08053
3853.27178	0.08317
3851.34321	0.08441
3849.41465	0.08271
3847.48608	0.08077
3845.55752	0.08017
3843.62896	0.08126
3841.70039	0.08307
3839.77183	0.08453
3837.84326	0.08584
3835.91470	0.08671
3833.98613	0.08669
3832.05757	0.08641
3830.12900	0.08636
3828.20044	0.08662
3826.27187	0.08751
3824.34331	0.08913
3822.41475	0.09133
3820.48618	0.09369
3818.55762	0.09382
3816.62905	0.09281
3814.70049	0.09293
3812.77192	0.09303
3810.84336	0.09284
3808.91479	0.09339
3806.98623	0.09501
3805.05767	0.09719
3803.12910	0.09954
3801.20054	0.10248
3799.27197	0.10442
3797.34341	0.10456
3795.41484	0.10437
3793.48628	0.10387
3791.55771	0.10357
3789.62915	0.10418
3787.70059	0.10553
3785.77202	0.10754
3783.84346	0.10992
3781.91489	0.11183
3779.98633	0.11351
3778.05776	0.11520
3776.12920	0.11612
3774.20063	0.11678
3772.27207	0.11824
3770.34351	0.12098
3768.41494	0.12406
3766.48638	0.12586
3764.55781	0.12729
3762.62925	0.12895
3760.70068	0.13099
3758.77212	0.13400
3756.84355	0.13687
3754.91499	0.13890
3752.98643	0.14186
3751.05786	0.14696
3749.12930	0.15203
3747.20073	0.15401
3745.27217	0.15582
3743.34360	0.15963
3741.41504	0.16269
3739.48647	0.16427
3737.55791	0.16664
3735.62935	0.17158
3733.70078	0.17857
3731.77222	0.18315
3729.84365	0.18550
3727.91509	0.18858
3725.98652	0.19362
3724.05796	0.20015
3722.12939	0.20720
3720.20083	0.21479
3718.27227	0.22250
3716.34370	0.22985
3714.41514	0.23718
3712.48657	0.24657
3710.55801	0.26034
3708.62944	0.27440
3706.70088	0.28475
3704.77231	0.29474
3702.84375	0.30770
3700.91519	0.32532
3698.98662	0.34402
3697.05806	0.36117
3695.12949	0.37982
3693.20093	0.40017
3691.27236	0.42255
3689.34380	0.45177
3687.41523	0.48688
3685.48667	0.51648
3683.55811	0.54183
3681.62954	0.56959
3679.70098	0.60143
3677.77241	0.63531
3675.84385	0.67509
3673.91528	0.72803
3671.98672	0.77131
3670.05815	0.80971
3668.12959	0.86211
3666.20103	0.90939
3664.27246	0.94918
3662.34390	0.99299
3660.41533	1.04056
3658.48677	1.08679
3656.55820	1.13547
3654.62964	1.18968
3652.70107	1.23530
3650.77251	1.27546
3648.84395	1.33215
3646.91538	1.40262
3644.98682	1.45325
3643.05825	1.49086
3641.12969	1.52951
3639.20112	1.57285
3637.27256	1.61699
3635.34399	1.65990
3633.41543	1.70267
3631.48687	1.74278
3629.55830	1.78364
3627.62974	1.83802
3625.70117	1.88853
3623.77261	1.92144
3621.84404	1.95353
3619.91548	1.99220
3617.98691	2.03895
3616.05835	2.08238
3614.12979	2.11811
3612.20122	2.15668
3610.27266	2.19642
3608.34409	2.23654
3606.41553	2.27815
3604.48696	2.31509
3602.55840	2.34888
3600.62983	2.38744
3598.70127	2.42938
3596.77271	2.46991
3594.84414	2.51005
3592.91558	2.55051
3590.98701	2.58978
3589.05845	2.62753
3587.12988	2.67184
3585.20132	2.71931
3583.27275	2.75850
3581.34419	2.79499
3579.41562	2.83486
3577.48706	2.87669
3575.55850	2.91791
3573.62993	2.96052
3571.70137	3.00350
3569.77280	3.04498
3567.84424	3.08790
3565.91567	3.13892
3563.98711	3.18912
3562.05854	3.23088
3560.12998	3.27234
3558.20142	3.31618
3556.27285	3.36026
3554.34429	3.40345
3552.41572	3.44895
3550.48716	3.49578
3548.55859	3.54139
3546.63003	3.58811
3544.70146	3.63527
3542.77290	3.67986
3540.84434	3.72439
3538.91577	3.77027
3536.98721	3.81741
3535.05864	3.86750
3533.13008	3.91587
3531.20151	3.96180
3529.27295	4.01020
3527.34438	4.06188
3525.41582	4.11007
3523.48726	4.15214
3521.55869	4.19633
3519.63013	4.24352
3517.70156	4.29179
3515.77300	4.34277
3513.84443	4.39376
3511.91587	4.44182
3509.98730	4.48824
3508.05874	4.53524
3506.13018	4.58264
3504.20161	4.62947
3502.27305	4.67950
3500.34448	4.73095
3498.41592	4.77526
3496.48735	4.81654
3494.55879	4.86408
3492.63022	4.91819
3490.70166	4.97156
3488.77310	5.01772
3486.84453	5.05642
3484.91597	5.09322
3482.98740	5.13415
3481.05884	5.18076
3479.13027	5.23237
3477.20171	5.28802
3475.27314	5.33883
3473.34458	5.38426
3471.41602	5.43903
3469.48745	5.49833
3467.55889	5.54510
3465.63032	5.58565
3463.70176	5.63497
3461.77319	5.68787
3459.84463	5.73506
3457.91606	5.77670
3455.98750	5.82251
3454.05894	5.87540
3452.13037	5.93116
3450.20181	5.99079
3448.27324	6.04579
3446.34468	6.09604
3444.41611	6.14426
3442.48755	6.18780
3440.55898	6.23303
3438.63042	6.28738
3436.70186	6.34003
3434.77329	6.37876
3432.84473	6.41653
3430.91616	6.47329
3428.98760	6.55458
3427.05903	6.63019
3425.13047	6.67652
3423.20190	6.69974
3421.27334	6.72079
3419.34478	6.76733
3417.41621	6.84838
3415.48765	6.93440
3413.55908	6.98807
3411.63052	7.01564
3409.70195	7.04751
3407.77339	7.09709
3405.84482	7.11306
3403.91626	7.10305
3401.98770	7.14193
3400.05913	7.21742
3398.13057	7.29089
3396.20200	7.33988
3394.27344	7.34413
3392.34487	7.35643
3390.41631	7.41753
3388.48774	7.46660
3386.55918	7.49828
3384.63062	7.54398
3382.70205	7.61098
3380.77349	7.70101
3378.84492	7.76467
3376.91636	7.76419
3374.98779	7.76282
3373.05923	7.82561
3371.13066	7.86623
3369.20210	7.85869
3367.27354	7.86047
3365.34497	7.84550
3363.41641	7.79504
3361.48784	7.78012
3359.55928	7.84859
3357.63071	7.92325
3355.70215	7.94661
3353.77358	7.91044
3351.84502	7.85093
3349.91646	7.83038
3347.98789	7.88002
3346.05933	7.96450
3344.13076	8.02390
3342.20220	8.07138
3340.27363	8.11059
3338.34507	8.10753
3336.41650	8.05180
3334.48794	8.01763
3332.55937	8.02788
3330.63081	8.02064
3328.70225	7.96670
3326.77368	7.92701
3324.84512	7.95069
3322.91655	7.97851
3320.98799	7.98951
3319.05942	8.03969
3317.13086	8.10978
3315.20229	8.09918
3313.27373	8.10664
3311.34517	8.20812
3309.41660	8.29407
3307.48804	8.33822
3305.55947	8.29677
3303.63091	8.18291
3301.70234	8.09869
3299.77378	8.06354
3297.84521	8.06606
3295.91665	8.11172
3293.98809	8.16870
3292.05952	8.24067
3290.13096	8.34353
3288.20239	8.35149
3286.27383	8.23226
3284.34526	8.17494
3282.41670	8.25334
3280.48813	8.26604
3278.55957	8.16257
3276.63101	8.13507
3274.70244	8.19213
3272.77388	8.23114
3270.84531	8.20441
3268.91675	8.14336
3266.98818	8.13667
3265.05962	8.23055
3263.13105	8.34955
3261.20249	8.36572
3259.27393	8.31256
3257.34536	8.33331
3255.41680	8.35453
3253.48823	8.23545
3251.55967	8.09729
3249.63110	8.06961
3247.70254	8.13635
3245.77397	8.23479
3243.84541	8.30565
3241.91685	8.28532
3239.98828	8.22490
3238.05972	8.18123
3236.13115	8.13759
3234.20259	8.14097
3232.27402	8.24748
3230.34546	8.35029
3228.41689	8.30545
3226.48833	8.20619
3224.55977	8.09491
3222.63120	8.02336
3220.70264	8.09353
3218.77407	8.20504
3216.84551	8.22596
3214.91694	8.14522
3212.98838	8.02137
3211.05981	7.96938
3209.13125	8.01332
3207.20269	8.04884
3205.27412	7.97810
3203.34556	7.85695
3201.41699	7.77532
3199.48843	7.72093
3197.55986	7.65936
3195.63130	7.60759
3193.70273	7.58910
3191.77417	7.58210
3189.84561	7.52434
3187.91704	7.42279
3185.98848	7.36218
3184.05991	7.35014
3182.13135	7.33038
3180.20278	7.27979
3178.27422	7.21641
3176.34565	7.17224
3174.41709	7.13209
3172.48853	7.06443
3170.55996	6.98575
3168.63140	6.92717
3166.70283	6.87577
3164.77427	6.80063
3162.84570	6.71698
3160.91714	6.63578
3158.98857	6.55240
3157.06001	6.48832
3155.13145	6.44481
3153.20288	6.39510
3151.27432	6.33575
3149.34575	6.26985
3147.41719	6.19455
3145.48862	6.11672
3143.56006	6.04767
3141.63149	5.98791
3139.70293	5.92292
3137.77437	5.85504
3135.84580	5.78766
3133.91724	5.70680
3131.98867	5.62070
3130.06011	5.55291
3128.13154	5.49859
3126.20298	5.43486
3124.27441	5.35860
3122.34585	5.28347
3120.41729	5.21551
3118.48872	5.14516
3116.56016	5.06878
3114.63159	4.99614
3112.70303	4.92580
3110.77446	4.84783
3108.84590	4.76903
3106.91733	4.70195
3104.98877	4.63992
3103.06021	4.57258
3101.13164	4.50303
3099.20308	4.43880
3097.27451	4.37926
3095.34595	4.31555
3093.41738	4.24802
3091.48882	4.18259
3089.56025	4.11560
3087.63169	4.04712
3085.70312	3.98402
3083.77456	3.92567
3081.84600	3.86607
3079.91743	3.80374
3077.98887	3.74348
3076.06030	3.68712
3074.13174	3.63090
3072.20317	3.57317
3070.27461	3.51475
3068.34604	3.45718
3066.41748	3.40201
3064.48892	3.34850
3062.56035	3.29473
3060.63179	3.24018
3058.70322	3.18531
3056.77466	3.13126
3054.84609	3.07856
3052.91753	3.02713
3050.98896	2.97720
3049.06040	2.92798
3047.13184	2.87842
3045.20327	2.82881
3043.27471	2.78092
3041.34614	2.73464
3039.41758	2.68826
3037.48901	2.64219
3035.56045	2.59673
3033.63188	2.55128
3031.70332	2.50642
3029.77476	2.46269
3027.84619	2.41941
3025.91763	2.37658
3023.98906	2.33506
3022.06050	2.29516
3020.13193	2.25620
3018.20337	2.21690
3016.27480	2.17757
3014.34624	2.13940
3012.41768	2.10165
3010.48911	2.06349
3008.56055	2.02594
3006.63198	1.99004
3004.70342	1.95559
3002.77485	1.92139
3000.84629	1.88699
2998.91772	1.85330
2996.98916	1.82068
2995.06060	1.78878
2993.13203	1.75783
2991.20347	1.72764
2989.27490	1.69735
2987.34634	1.66689
2985.41777	1.63740
2983.48921	1.60927
2981.56064	1.58143
2979.63208	1.55357
2977.70352	1.52666
2975.77495	1.50073
2973.84639	1.47481
2971.91782	1.44883
2969.98926	1.42318
2968.06069	1.39810
2966.13213	1.37346
2964.20356	1.34889
2962.27500	1.32485
2960.34644	1.30146
2958.41787	1.27823
2956.48931	1.25556
2954.56074	1.23339
2952.63218	1.21087
2950.70361	1.18809
2948.77505	1.16589
2946.84648	1.14455
2944.91792	1.12399
2942.98936	1.10397
2941.06079	1.08414
2939.13223	1.06432
2937.20366	1.04466
2935.27510	1.02556
2933.34653	1.00722
2931.41797	0.98928
2929.48940	0.97128
2927.56084	0.95307
2925.63228	0.93512
2923.70371	0.91812
2921.77515	0.90199
2919.84658	0.88634
2917.91802	0.87083
2915.98945	0.85511
2914.06089	0.83943
2912.13232	0.82405
2910.20376	0.80903
2908.27520	0.79441
2906.34663	0.78019
2904.41807	0.76648
2902.48950	0.75336
2900.56094	0.74049
2898.63237	0.72741
2896.70381	0.71456
2894.77524	0.70235
2892.84668	0.69049
2890.91812	0.67881
2888.98955	0.66749
2887.06099	0.65666
2885.13242	0.64604
2883.20386	0.63546
2881.27529	0.62531
2879.34673	0.61560
2877.41816	0.60591
2875.48960	0.59617
2873.56104	0.58632
2871.63247	0.57618
2869.70391	0.56606
2867.77534	0.55638
2865.84678	0.54672
2863.91821	0.53661
2861.98965	0.52628
2860.06108	0.51642
2858.13252	0.50745
2856.20396	0.49884
2854.27539	0.49016
2852.34683	0.48176
2850.41826	0.47393
2848.48970	0.46638
2846.56113	0.45891
2844.63257	0.45157
2842.70400	0.44462
2840.77544	0.43823
2838.84687	0.43226
2836.91831	0.42655
2834.98975	0.42073
2833.06118	0.41463
2831.13262	0.40866
2829.20405	0.40298
2827.27549	0.39726
2825.34692	0.39144
2823.41836	0.38564
2821.48979	0.37991
2819.56123	0.37450
2817.63267	0.36927
2815.70410	0.36384
2813.77554	0.35829
2811.84697	0.35288
2809.91841	0.34767
2807.98984	0.34267
2806.06128	0.33786
2804.13271	0.33309
2802.20415	0.32839
2800.27559	0.32372
2798.34702	0.31895
2796.41846	0.31437
2794.48989	0.31016
2792.56133	0.30599
2790.63276	0.30173
2788.70420	0.29758
2786.77563	0.29351
2784.84707	0.28944
2782.91851	0.28550
2780.98994	0.28177
2779.06138	0.27819
2777.13281	0.27467
2775.20425	0.27109
2773.27568	0.26740
2771.34712	0.26380
2769.41855	0.26051
2767.48999	0.25738
2765.56143	0.25411
2763.63286	0.25073
2761.70430	0.24755
2759.77573	0.24456
2757.84717	0.24167
2755.91860	0.23883
2753.99004	0.23604
2752.06147	0.23327
2750.13291	0.23042
2748.20435	0.22760
2746.27578	0.22506
2744.34722	0.22273
2742.41865	0.22033
2740.49009	0.21778
2738.56152	0.21520
2736.63296	0.21272
2734.70439	0.21036
2732.77583	0.20809
2730.84727	0.20595
2728.91870	0.20399
2726.99014	0.20210
2725.06157	0.20009
2723.13301	0.19789
2721.20444	0.19572
2719.27588	0.19380
2717.34731	0.19203
2715.41875	0.19019
2713.49019	0.18838
2711.56162	0.18667
2709.63306	0.18496
2707.70449	0.18337
2705.77593	0.18201
2703.84736	0.18067
2701.91880	0.17923
2699.99023	0.17782
2698.06167	0.17641
2696.13311	0.17488
2694.20454	0.17336
2692.27598	0.17201
2690.34741	0.17080
2688.41885	0.16969
2686.49028	0.16860
2684.56172	0.16753
2682.63315	0.16635
2680.70459	0.16505
2678.77603	0.16393
2676.84746	0.16305
2674.91890	0.16228
2672.99033	0.16138
2671.06177	0.16028
2669.13320	0.15926
2667.20464	0.15836
2665.27607	0.15748
2663.34751	0.15665
2661.41895	0.15580
2659.49038	0.15498
2657.56182	0.15435
2655.63325	0.15375
2653.70469	0.15302
2651.77612	0.15241
2649.84756	0.15196
2647.91899	0.15136
2645.99043	0.15064
2644.06187	0.15006
2642.13330	0.14960
2640.20474	0.14915
2638.27617	0.14871
2636.34761	0.14837
2634.41904	0.14804
2632.49048	0.14760
2630.56191	0.14715
2628.63335	0.14681
2626.70479	0.14654
2624.77622	0.14627
2622.84766	0.14595
2620.91909	0.14566
2618.99053	0.14552
2617.06196	0.14544
2615.13340	0.14537
2613.20483	0.14533
2611.27627	0.14530
2609.34771	0.14513
2607.41914	0.14480
2605.49058	0.14459
2603.56201	0.14463
2601.63345	0.14479
2599.70488	0.14488
2597.77632	0.14492
2595.84775	0.14508
2593.91919	0.14527
2591.99062	0.14539
2590.06206	0.14552
2588.13350	0.14576
2586.20493	0.14595
2584.27637	0.14603
2582.34780	0.14625
2580.41924	0.14669
2578.49067	0.14707
2576.56211	0.14736
2574.63354	0.14766
2572.70498	0.14796
2570.77642	0.14833
2568.84785	0.14873
2566.91929	0.14903
2564.99072	0.14935
2563.06216	0.14977
2561.13359	0.15016
2559.20503	0.15058
2557.27646	0.15107
2555.34790	0.15164
2553.41934	0.15231
2551.49077	0.15299
2549.56221	0.15356
2547.63364	0.15410
2545.70508	0.15473
2543.77651	0.15535
2541.84795	0.15592
2539.91938	0.15650
2537.99082	0.15711
2536.06226	0.15775
2534.13369	0.15845
2532.20513	0.15921
2530.27656	0.15992
2528.34800	0.16061
2526.41943	0.16129
2524.49087	0.16196
2522.56230	0.16265
2520.63374	0.16337
2518.70518	0.16410
2516.77661	0.16493
2514.84805	0.16587
2512.91948	0.16677
2510.99092	0.16756
2509.06235	0.16828
2507.13379	0.16897
2505.20522	0.16967
2503.27666	0.17042
2501.34810	0.17126
2499.41953	0.17221
2497.49097	0.17313
2495.56240	0.17400
2493.63384	0.17495
2491.70527	0.17589
2489.77671	0.17667
2487.84814	0.17741
2485.91958	0.17829
2483.99102	0.17920
2482.06245	0.18008
2480.13389	0.18100
2478.20532	0.18191
2476.27676	0.18272
2474.34819	0.18356
2472.41963	0.18447
2470.49106	0.18530
2468.56250	0.18602
2466.63394	0.18689
2464.70537	0.18807
2462.77681	0.18924
2460.84824	0.19028
2458.91968	0.19130
2456.99111	0.19231
2455.06255	0.19324
2453.13398	0.19416
2451.20542	0.19512
2449.27686	0.19610
2447.34829	0.19701
2445.41973	0.19788
2443.49116	0.19888
2441.56260	0.20000
2439.63403	0.20105
2437.70547	0.20206
2435.77690	0.20310
2433.84834	0.20412
2431.91978	0.20514
2429.99121	0.20622
2428.06265	0.20728
2426.13408	0.20832
2424.20552	0.20932
2422.27695	0.21030
2420.34839	0.21135
2418.41982	0.21249
2416.49126	0.21366
2414.56270	0.21470
2412.63413	0.21568
2410.70557	0.21673
2408.77700	0.21789
2406.84844	0.21916
2404.91987	0.22056
2402.99131	0.22190
2401.06274	0.22310
2399.13418	0.22416
2397.20562	0.22510
2395.27705	0.22611
2393.34849	0.22734
2391.41992	0.22876
2389.49136	0.23010
2387.56279	0.23118
2385.63423	0.23198
2383.70566	0.23249
2381.77710	0.23285
2379.84854	0.23323
2377.91997	0.23362
2375.99141	0.23389
2374.06284	0.23410
2372.13428	0.23414
2370.20571	0.23353
2368.27715	0.23233
2366.34858	0.23105
2364.42002	0.22962
2362.49146	0.22882
2360.56289	0.22995
2358.63433	0.23302
2356.70576	0.23755
2354.77720	0.24184
2352.84863	0.24540
2350.92007	0.24874
2348.99150	0.25101
2347.06294	0.25181
2345.13437	0.25196
2343.20581	0.25248
2341.27725	0.25337
2339.34868	0.25464
2337.42012	0.25606
2335.49155	0.25765
2333.56299	0.26010
2331.63442	0.26275
2329.70586	0.26460
2327.77729	0.26646
2325.84873	0.26899
2323.92017	0.27161
2321.99160	0.27379
2320.06304	0.27592
2318.13447	0.27834
2316.20591	0.28052
2314.27734	0.28244
2312.34878	0.28459
2310.42021	0.28693
2308.49165	0.28909
2306.56309	0.29126
2304.63452	0.29371
2302.70596	0.29614
2300.77739	0.29829
2298.84883	0.30025
2296.92026	0.30223
2294.99170	0.30430
2293.06313	0.30650
2291.13457	0.30871
2289.20601	0.31082
2287.27744	0.31296
2285.34888	0.31516
2283.42031	0.31722
2281.49175	0.31917
2279.56318	0.32117
2277.63462	0.32316
2275.70605	0.32508
2273.77749	0.32710
2271.84893	0.32931
2269.92036	0.33152
2267.99180	0.33357
2266.06323	0.33555
2264.13467	0.33753
2262.20610	0.33961
2260.27754	0.34183
2258.34897	0.34405
2256.42041	0.34617
2254.49185	0.34833
2252.56328	0.35059
2250.63472	0.35281
2248.70615	0.35491
2246.77759	0.35692
2244.84902	0.35904
2242.92046	0.36123
2240.99189	0.36338
2239.06333	0.36559
2237.13477	0.36785
2235.20620	0.37010
2233.27764	0.37238
2231.34907	0.37460
2229.42051	0.37675
2227.49194	0.37888
2225.56338	0.38099
2223.63481	0.38303
2221.70625	0.38510
2219.77769	0.38731
2217.84912	0.38957
2215.92056	0.39176
2213.99199	0.39379
2212.06343	0.39581
2210.13486	0.39792
2208.20630	0.40008
2206.27773	0.40220
2204.34917	0.40421
2202.42061	0.40619
2200.49204	0.40814
2198.56348	0.41000
2196.63491	0.41187
2194.70635	0.41390
2192.77778	0.41608
2190.84922	0.41818
2188.92065	0.41994
2186.99209	0.42148
2185.06353	0.42317
2183.13496	0.42504
2181.20640	0.42689
2179.27783	0.42862
2177.34927	0.43021
2175.42070	0.43171
2173.49214	0.43319
2171.56357	0.43450
2169.63501	0.43566
2167.70645	0.43689
2165.77788	0.43833
2163.84932	0.43976
2161.92075	0.44099
2159.99219	0.44210
2158.06362	0.44310
2156.13506	0.44397
2154.20649	0.44480
2152.27793	0.44563
2150.34937	0.44636
2148.42080	0.44699
2146.49224	0.44760
2144.56367	0.44821
2142.63511	0.44870
2140.70654	0.44897
2138.77798	0.44918
2136.84941	0.44952
2134.92085	0.44980
2132.99229	0.44980
2131.06372	0.44972
2129.13516	0.44968
2127.20659	0.44955
2125.27803	0.44935
2123.34946	0.44905
2121.42090	0.44860
2119.49233	0.44801
2117.56377	0.44735
2115.63521	0.44666
2113.70664	0.44596
2111.77808	0.44523
2109.84951	0.44437
2107.92095	0.44330
2105.99238	0.44218
2104.06382	0.44115
2102.13525	0.44008
2100.20669	0.43893
2098.27812	0.43759
2096.34956	0.43608
2094.42100	0.43456
2092.49243	0.43310
2090.56387	0.43164
2088.63530	0.43004
2086.70674	0.42832
2084.77817	0.42659
2082.84961	0.42482
2080.92104	0.42290
2078.99248	0.42092
2077.06392	0.41888
2075.13535	0.41680
2073.20679	0.41468
2071.27822	0.41249
2069.34966	0.41039
2067.42109	0.40829
2065.49253	0.40605
2063.56396	0.40370
2061.63540	0.40135
2059.70684	0.39894
2057.77827	0.39643
2055.84971	0.39405
2053.92114	0.39175
2051.99258	0.38925
2050.06401	0.38657
2048.13545	0.38393
2046.20688	0.38136
2044.27832	0.37884
2042.34976	0.37635
2040.42119	0.37371
2038.49263	0.37094
2036.56406	0.36826
2034.63550	0.36566
2032.70693	0.36299
2030.77837	0.36030
2028.84980	0.35759
2026.92124	0.35487
2024.99268	0.35218
2023.06411	0.34952
2021.13555	0.34690
2019.20698	0.34439
2017.27842	0.34184
2015.34985	0.33904
2013.42129	0.33619
2011.49272	0.33333
2009.56416	0.33049
2007.63560	0.32780
2005.70703	0.32525
2003.77847	0.32268
2001.84990	0.32008
1999.92134	0.31746
1997.99277	0.31489
1996.06421	0.31247
1994.13564	0.31016
1992.20708	0.30780
1990.27852	0.30527
1988.34995	0.30267
1986.42139	0.30007
1984.49282	0.29755
1982.56426	0.29520
1980.63569	0.29297
1978.70713	0.29077
1976.77856	0.28854
1974.85000	0.28631
1972.92144	0.28411
1970.99287	0.28207
1969.06431	0.28024
1967.13574	0.27837
1965.20718	0.27621
1963.27861	0.27403
1961.35005	0.27208
1959.42148	0.27024
1957.49292	0.26836
1955.56436	0.26653
1953.63579	0.26486
1951.70723	0.26320
1949.77866	0.26151
1947.85010	0.25994
1945.92153	0.25860
1943.99297	0.25737
1942.06440	0.25595
1940.13584	0.25423
1938.20728	0.25256
1936.27871	0.25117
1934.35015	0.24994
1932.42158	0.24872
1930.49302	0.24753
1928.56445	0.24643
1926.63589	0.24532
1924.70732	0.24442
1922.77876	0.24372
1920.85020	0.24282
1918.92163	0.24178
1916.99307	0.24080
1915.06450	0.23973
1913.13594	0.23878
1911.20737	0.23816
1909.27881	0.23767
1907.35024	0.23700
1905.42168	0.23618
1903.49312	0.23541
1901.56455	0.23479
1899.63599	0.23427
1897.70742	0.23389
1895.77886	0.23370
1893.85029	0.23347
1891.92173	0.23310
1889.99316	0.23288
1888.06460	0.23262
1886.13604	0.23217
1884.20747	0.23178
1882.27891	0.23146
1880.35034	0.23129
1878.42178	0.23127
1876.49321	0.23126
1874.56465	0.23120
1872.63608	0.23129
1870.70752	0.23173
1868.77896	0.23261
1866.85039	0.23300
1864.92183	0.23257
1862.99326	0.23228
1861.06470	0.23247
1859.13613	0.23290
1857.20757	0.23323
1855.27900	0.23356
1853.35044	0.23394
1851.42187	0.23438
1849.49331	0.23495
1847.56475	0.23581
1845.63618	0.23694
1843.70762	0.23809
1841.77905	0.23863
1839.85049	0.23878
1837.92192	0.23947
1835.99336	0.24043
1834.06479	0.24138
1832.13623	0.24252
1830.20767	0.24418
1828.27910	0.24568
1826.35054	0.24657
1824.42197	0.24765
1822.49341	0.24875
1820.56484	0.24980
1818.63628	0.25104
1816.70771	0.25256
1814.77915	0.25416
1812.85059	0.25599
1810.92202	0.25814
1808.99346	0.26022
1807.06489	0.26209
1805.13633	0.26395
1803.20776	0.26626
1801.27920	0.26889
1799.35063	0.27154
1797.42207	0.27387
1795.49351	0.27638
1793.56494	0.27959
1791.63638	0.28355
1789.70781	0.28675
1787.77925	0.28882
1785.85068	0.29167
1783.92212	0.29540
1781.99355	0.29940
1780.06499	0.30349
1778.13643	0.30764
1776.20786	0.31167
1774.27930	0.31628
1772.35073	0.32252
1770.42217	0.32878
1768.49360	0.33358
1766.56504	0.33826
1764.63647	0.34332
1762.70791	0.34920
1760.77935	0.35674
1758.85078	0.36367
1756.92222	0.37062
1754.99365	0.37829
1753.06509	0.38534
1751.13652	0.39397
1749.20796	0.40493
1747.27939	0.41534
1745.35083	0.42414
1743.42227	0.43355
1741.49370	0.44409
1739.56514	0.45647
1737.63657	0.46874
1735.70801	0.47965
1733.77944	0.49636
1731.85088	0.51587
1729.92231	0.53063
1727.99375	0.54556
1726.06519	0.56200
1724.13662	0.58027
1722.20806	0.59994
1720.27949	0.61806
1718.35093	0.63969
1716.42236	0.67184
1714.49380	0.70182
1712.56523	0.72567
1710.63667	0.74894
1708.70811	0.77435
1706.77954	0.80352
1704.85098	0.83803
1702.92241	0.86824
1700.99385	0.89819
1699.06528	0.94367
1697.13672	0.98569
1695.20815	1.02817
1693.27959	1.06877
1691.35103	1.10159
1689.42246	1.14013
1687.49390	1.18087
1685.56533	1.22002
1683.63677	1.28008
1681.70820	1.34123
1679.77964	1.38013
1677.85107	1.41779
1675.92251	1.46125
1673.99395	1.51510
1672.06538	1.56315
1670.13682	1.60993
1668.20825	1.66992
1666.27969	1.71801
1664.35112	1.75846
1662.42256	1.80915
1660.49399	1.86651
1658.56543	1.91181
1656.63687	1.94818
1654.70830	1.98144
1652.77974	2.03698
1650.85117	2.09263
1648.92261	2.11435
1646.99404	2.14043
1645.06548	2.16893
1643.13691	2.18779
1641.20835	2.19972
1639.27979	2.21025
1637.35122	2.21641
1635.42266	2.21691
1633.49409	2.21097
1631.56553	2.19870
1629.63696	2.18268
1627.70840	2.15612
1625.77983	2.12533
1623.85127	2.08731
1621.92271	2.03968
1619.99414	1.99644
1618.06558	1.95472
1616.13701	1.89409
1614.20845	1.83078
1612.27988	1.78346
1610.35132	1.73497
1608.42275	1.68157
1606.49419	1.62801
1604.56562	1.57812
1602.63706	1.52984
1600.70850	1.48289
1598.77993	1.43974
1596.85137	1.39895
1594.92280	1.35913
1592.99424	1.32062
1591.06567	1.28544
1589.13711	1.25271
1587.20854	1.22209
1585.27998	1.19349
1583.35142	1.16668
1581.42285	1.14234
1579.49429	1.12188
1577.56572	1.10345
1575.63716	1.07993
1573.70859	1.05863
1571.78003	1.04499
1569.85146	1.03067
1567.92290	1.01407
1565.99434	1.00124
1564.06577	0.99113
1562.13721	0.98295
1560.20864	0.97688
1558.28008	0.96856
1556.35151	0.96048
1554.42295	0.95468
1552.49438	0.94895
1550.56582	0.94279
1548.63726	0.93553
1546.70869	0.92817
1544.78013	0.92047
1542.85156	0.91166
1540.92300	0.89971
1538.99443	0.88050
1537.06587	0.86566
1535.13730	0.85594
1533.20874	0.84356
1531.28018	0.82972
1529.35161	0.81952
1527.42305	0.81029
1525.49448	0.80075
1523.56592	0.79269
1521.63735	0.78518
1519.70879	0.77684
1517.78022	0.76920
1515.85166	0.76064
1513.92310	0.75182
1511.99453	0.74459
1510.06597	0.73874
1508.13740	0.73373
1506.20884	0.72467
1504.28027	0.71493
1502.35171	0.70925
1500.42314	0.70500
1498.49458	0.70085
1496.56602	0.69549
1494.63745	0.68958
1492.70889	0.68517
1490.78032	0.68189
1488.85176	0.67791
1486.92319	0.67323
1484.99463	0.66910
1483.06606	0.66579
1481.13750	0.66287
1479.20894	0.66033
1477.28037	0.65862
1475.35181	0.65748
1473.42324	0.65627
1471.49468	0.65397
1469.56611	0.65114
1467.63755	0.64871
1465.70898	0.64664
1463.78042	0.64471
1461.85186	0.64320
1459.92329	0.64254
1457.99473	0.64252
1456.06616	0.64119
1454.13760	0.63829
1452.20903	0.63588
1450.28047	0.63387
1448.35190	0.63201
1446.42334	0.62995
1444.49478	0.62787
1442.56621	0.62597
1440.63765	0.62408
1438.70908	0.62228
1436.78052	0.62019
1434.85195	0.61761
1432.92339	0.61533
1430.99482	0.61366
1429.06626	0.61238
1427.13770	0.61127
1425.20913	0.61051
1423.28057	0.61009
1421.35200	0.60972
1419.42344	0.60932
1417.49487	0.60835
1415.56631	0.60668
1413.63774	0.60528
1411.70918	0.60444
1409.78062	0.60399
1407.85205	0.60374
1405.92349	0.60378
1403.99492	0.60375
1402.06636	0.60324
1400.13779	0.60271
1398.20923	0.60203
1396.28066	0.60047
1394.35210	0.59781
1392.42354	0.59475
1390.49497	0.59214
1388.56641	0.58989
1386.63784	0.58736
1384.70928	0.58447
1382.78071	0.58175
1380.85215	0.57936
1378.92358	0.57729
1376.99502	0.57570
1375.06646	0.57454
1373.13789	0.57326
1371.20933	0.57201
1369.28076	0.57114
1367.35220	0.57016
1365.42363	0.56895
1363.49507	0.56793
1361.56650	0.56692
1359.63794	0.56566
1357.70937	0.56452
1355.78081	0.56354
1353.85225	0.56252
1351.92368	0.56154
1349.99512	0.56073
1348.06655	0.55992
1346.13799	0.55904
1344.20942	0.55829
1342.28086	0.55776
1340.35229	0.55733
1338.42373	0.55657
1336.49517	0.55546
1334.56660	0.55450
1332.63804	0.55394
1330.70947	0.55367
1328.78091	0.55350
1326.85234	0.55327
1324.92378	0.55296
1322.99521	0.55272
1321.06665	0.55261
1319.13809	0.55255
1317.20952	0.55234
1315.28096	0.55184
1313.35239	0.55119
1311.42383	0.55048
1309.49526	0.54969
1307.56670	0.54897
1305.63813	0.54840
1303.70957	0.54785
1301.78101	0.54730
1299.85244	0.54669
1297.92388	0.54598
1295.99531	0.54515
1294.06675	0.54429
1292.13818	0.54351
1290.20962	0.54286
1288.28105	0.54210
1286.35249	0.54117
1284.42393	0.54027
1282.49536	0.53945
1280.56680	0.53868
1278.63823	0.53788
1276.70967	0.53707
1274.78110	0.53634
1272.85254	0.53572
1270.92397	0.53525
1268.99541	0.53485
1267.06685	0.53436
1265.13828	0.53366
1263.20972	0.53298
1261.28115	0.53253
1259.35259	0.53222
1257.42402	0.53195
1255.49546	0.53173
1253.56689	0.53146
1251.63833	0.53121
1249.70977	0.53102
1247.78120	0.53076
1245.85264	0.53047
1243.92407	0.53015
1241.99551	0.52954
1240.06694	0.52865
1238.13838	0.52770
1236.20981	0.52669
1234.28125	0.52555
1232.35269	0.52433
1230.42412	0.52310
1228.49556	0.52186
1226.56699	0.52066
1224.63843	0.51963
1222.70986	0.51865
1220.78130	0.51753
1218.85273	0.51649
1216.92417	0.51568
1214.99561	0.51491
1213.06704	0.51404
1211.13848	0.51321
1209.20991	0.51258
1207.28135	0.51211
1205.35278	0.51153
1203.42422	0.51077
1201.49565	0.51007
1199.56709	0.50957
1197.63853	0.50909
1195.70996	0.50844
1193.78140	0.50784
1191.85283	0.50744
1189.92427	0.50712
1187.99570	0.50685
1186.06714	0.50661
1184.13857	0.50647
1182.21001	0.50662
1180.28145	0.50705
1178.35288	0.50767
1176.42432	0.50845
1174.49575	0.50916
1172.56719	0.50958
1170.63862	0.50979
1168.71006	0.50998
1166.78149	0.51018
1164.85293	0.51025
1162.92437	0.51010
1160.99580	0.50992
1159.06724	0.50976
1157.13867	0.50947
1155.21011	0.50891
1153.28154	0.50794
1151.35298	0.50656
1149.42441	0.50481
1147.49585	0.50265
1145.56729	0.50032
1143.63872	0.49808
1141.71016	0.49593
1139.78159	0.49384
1137.85303	0.49192
1135.92446	0.49027
1133.99590	0.48890
1132.06733	0.48768
1130.13877	0.48649
1128.21021	0.48537
1126.28164	0.48444
1124.35308	0.48362
1122.42451	0.48283
1120.49595	0.48235
1118.56738	0.48229
1116.63882	0.48255
1114.71025	0.48302
1112.78169	0.48342
1110.85312	0.48375
1108.92456	0.48432
1106.99600	0.48512
1105.06743	0.48603
1103.13887	0.48733
1101.21030	0.48914
1099.28174	0.49130
1097.35317	0.49380
1095.42461	0.49668
1093.49604	0.50002
1091.56748	0.50404
1089.63892	0.50907
1087.71035	0.51530
1085.78179	0.52246
1083.85322	0.52994
1081.92466	0.53698
1079.99609	0.54278
1078.06753	0.54642
1076.13896	0.54702
1074.21040	0.54445
1072.28184	0.53959
1070.35327	0.53350
1068.42471	0.52669
1066.49614	0.51978
1064.56758	0.51356
1062.63901	0.50816
1060.71045	0.50325
1058.78188	0.49878
1056.85332	0.49489
1054.92476	0.49140
1052.99619	0.48829
1051.06763	0.48583
1049.13906	0.48398
1047.21050	0.48233
1045.28193	0.48093
1043.35337	0.48001
1041.42480	0.47948
1039.49624	0.47902
1037.56768	0.47849
1035.63911	0.47827
1033.71055	0.47830
1031.78198	0.47800
1029.85342	0.47728
1027.92485	0.47658
1025.99629	0.47620
1024.06772	0.47600
1022.13916	0.47606
1020.21060	0.47650
1018.28203	0.47707
1016.35347	0.47760
1014.42490	0.47817
1012.49634	0.47890
1010.56777	0.47998
1008.63921	0.48119
1006.71064	0.48238
1004.78208	0.48394
1002.85352	0.48607
1000.92495	0.48861
998.99639	0.49163
997.06782	0.49526
995.13926	0.49928
993.21069	0.50321
991.28213	0.50651
989.35356	0.50884
987.42500	0.51019
985.49644	0.51093
983.56787	0.51149
981.63931	0.51219
979.71074	0.51327
977.78218	0.51477
975.85361	0.51672
973.92505	0.51926
971.99648	0.52232
970.06792	0.52581
968.13936	0.52956
966.21079	0.53331
964.28223	0.53731
962.35366	0.54195
960.42510	0.54719
958.49653	0.55259
956.56797	0.55804
954.63940	0.56387
952.71084	0.57011
950.78228	0.57650
948.85371	0.58291
946.92515	0.58909
944.99658	0.59504
943.06802	0.60112
941.13945	0.60723
939.21089	0.61307
937.28232	0.61874
935.35376	0.62426
933.42520	0.62949
931.49663	0.63468
929.56807	0.64017
927.63950	0.64575
925.71094	0.65127
923.78237	0.65746
921.85381	0.66445
919.92524	0.67091
917.99668	0.67688
916.06812	0.68355
914.13955	0.69092
912.21099	0.69876
910.28242	0.70688
908.35386	0.71500
906.42529	0.72343
904.49673	0.73243
902.56816	0.74138
900.63960	0.74970
898.71104	0.75826
896.78247	0.76813
894.85391	0.77845
892.92534	0.78794
890.99678	0.79737
889.06821	0.80775
887.13965	0.81798
885.21108	0.82805
883.28252	0.84009
881.35396	0.85346
879.42539	0.86566
877.49683	0.87687
875.56826	0.88866
873.63970	0.90062
871.71113	0.91134
869.78257	0.92121
867.85400	0.93121
865.92544	0.94201
863.99687	0.95294
862.06831	0.96248
860.13975	0.97259
858.21118	0.98543
856.28262	0.99880
854.35405	1.01163
852.42549	1.02451
850.49692	1.03519
848.56836	1.04365
846.63979	1.05380
844.71123	1.06625
842.78267	1.07857
840.85410	1.08995
838.92554	1.10063
836.99697	1.11299
835.06841	1.12830
833.13984	1.14124
831.21128	1.15113
829.28271	1.16358
827.35415	1.17586
825.42559	1.18543
823.49702	1.19491
821.56846	1.20251
819.63989	1.20955
817.71133	1.21972
815.78276	1.23277
813.85420	1.25025
811.92563	1.27451
809.99707	1.29547
808.06851	1.30511
806.13994	1.31513
804.21138	1.33392
802.28281	1.36588
800.35425	1.39493
798.42568	1.38542
796.49712	1.35665
794.56855	1.37787
792.63999	1.48757
790.71143	1.58560
788.78286	1.52845
786.85430	1.48432
784.92573	1.52954
782.99717	1.60503
781.06860	1.64969
779.14004	1.61048
777.21147	1.54410
775.28291	1.53153
773.35435	1.48924
771.42578	1.39189
769.49722	1.32898
767.56865	1.27786
765.64009	1.24789
763.71152	1.27084
761.78296	1.29908
759.85439	1.23713
757.92583	1.16611
755.99727	1.14534
754.06870	1.14114
752.14014	1.14043
750.21157	1.12735
748.28301	1.07799
746.35444	1.02609
744.42588	1.03379
742.49731	1.17181
740.56875	1.53443
738.64019	1.59702
736.71162	1.03323
734.78306	0.71546
732.85449	0.56476
730.92593	0.48908
728.99736	0.42980
727.06880	0.41770
725.14023	0.44651
723.21167	0.48057
721.28311	0.52409
719.35454	0.36159
717.42598	0.12103
715.49741	-0.08769
713.56885	-0.08950
711.64028	0.01087
709.71172	0.01520
707.78315	-0.02590
705.85459	0.01834
703.92603	0.18147
701.99746	0.38977
700.06890	0.35094
698.14033	0.20042
696.21177	0.19416
694.28320	0.20618
692.35464	0.23007
690.42607	0.37708
688.49751	0.45927
686.56895	0.30712
684.64038	0.22583
682.71182	0.22498
680.78325	0.17202
678.85469	0.07388
676.92612	0.05848
674.99756	0.12945
673.06899	0.16432
671.14043	0.12035
669.21187	0.10276
667.28330	0.10476
665.35474	0.09523
663.42617	0.10992
661.49761	0.13066
659.56904	0.07035
657.64048	0.01974
655.71191	0.01335
653.78335	-0.00220
651.85479	0.02862
649.92622	0.12718
647.99766	0.24331
646.06909	0.33606
644.14053	0.37209
642.21196	0.29953
640.28340	0.17063
638.35483	0.09166
636.42627	0.08906
634.49771	0.08716
632.56914	0.07085
630.64058	0.06098
628.71201	0.09652
626.78345	0.20107
624.85488	0.27082
622.92632	0.23663
620.99775	0.19859
619.06919	0.19734
617.14062	0.29058
615.21206	0.49532
613.28350	0.48759
611.35493	0.34733
609.42637	0.22796
607.49780	0.14931
605.56924	0.14073
603.64067	0.16307
601.71211	0.16917
599.78354	0.16215
597.85498	0.15318
595.92642	0.17242
593.99785	0.16979
592.06929	0.11105
590.14072	0.11951
588.21216	0.21777
586.28359	0.29091
584.35503	0.28458
582.42646	0.26755
580.49790	0.22634
578.56934	0.15119
576.64077	0.09939
574.71221	0.09200
572.78364	0.07277
570.85508	0.08174
568.92651	0.13322
566.99795	0.13122
565.06938	0.06923
563.14082	0.01892
561.21226	0.00433
559.28369	0.05144
557.35513	0.13466
555.42656	0.18090
553.49800	0.18466
551.56943	0.15252
549.64087	0.12447
547.71230	0.14601
545.78374	0.20226
543.85518	0.18975
541.92661	0.11294
539.99805	0.10064
538.06948	0.15269
536.14092	0.14485
534.21235	0.12629
532.28379	0.16805
530.35522	0.17835
528.42666	0.11188
526.49810	0.07578
524.56953	0.11762
522.64097	0.13662
520.71240	0.09545
518.78384	0.11887
516.85527	0.17358
514.92671	0.15628
512.99814	0.14479
511.06958	0.15655
509.14102	0.14608
507.21245	0.14867
505.28389	0.18131
503.35532	0.18833
501.42676	0.14799
499.49819	0.12626
