3997.91411	0.06899
3995.98555	0.06893
3994.05698	0.06936
3992.12842	0.06985
3990.19985	0.07028
3988.27129	0.07097
3986.34272	0.07137
3984.41416	0.07115
3982.48560	0.07103
3980.55703	0.07129
3978.62847	0.07150
3976.69990	0.07158
3974.77134	0.07185
3972.84277	0.07233
3970.91421	0.07258
3968.98564	0.07246
3967.05708	0.07254
3965.12852	0.07283
3963.19995	0.07277
3961.27139	0.07282
3959.34282	0.07334
3957.41426	0.07358
3955.48569	0.07355
3953.55713	0.07391
3951.62856	0.07453
3949.70000	0.07498
3947.77144	0.07502
3945.84287	0.07471
3943.91431	0.07449
3941.98574	0.07460
3940.05718	0.07471
3938.12861	0.07460
3936.20005	0.07440
3934.27148	0.07446
3932.34292	0.07497
3930.41436	0.07529
3928.48579	0.07508
3926.55723	0.07478
3924.62866	0.07467
3922.70010	0.07478
3920.77153	0.07509
3918.84297	0.07557
3916.91440	0.07577
3914.98584	0.07489
3913.05728	0.07350
3911.12871	0.07295
3909.20015	0.07327
3907.27158	0.07390
3905.34302	0.07518
3903.41445	0.07693
3901.48589	0.07786
3899.55732	0.07780
3897.62876	0.07669
3895.70020	0.07507
3893.77163	0.07462
3891.84307	0.07569
3889.91450	0.07627
3887.98594	0.07547
3886.05737	0.07549
3884.12881	0.07650
3882.20024	0.07702
3880.27168	0.07732
3878.34312	0.07690
3876.41455	0.07590
3874.48599	0.07605
3872.55742	0.07755
3870.62886	0.07946
3868.70029	0.08059
3866.77173	0.07995
3864.84316	0.07940
3862.91460	0.07992
3860.98604	0.07996
3859.05747	0.07915
3857.12891	0.07867
3855.20034	0.07975
3853.27178	0.08306
3851.34321	0.08494
3849.41465	0.08288
3847.48608	0.08088
3845.55752	0.08027
3843.62896	0.08130
3841.70039	0.08349
3839.77183	0.08568
3837.84326	0.08732
3835.91470	0.08764
3833.98613	0.08726
3832.05757	0.08752
3830.12900	0.08779
3828.20044	0.08751
3826.27187	0.08768
3824.34331	0.08882
3822.41475	0.09092
3820.48618	0.09402
3818.55762	0.09553
3816.62905	0.09527
3814.70049	0.09481
3812.77192	0.09362
3810.84336	0.09300
3808.91479	0.09406
3806.98623	0.09635
3805.05767	0.09836
3803.12910	0.09994
3801.20054	0.10242
3799.27197	0.10427
3797.34341	0.10447
3795.41484	0.10439
3793.48628	0.10389
3791.55771	0.10387
3789.62915	0.10493
3787.70059	0.10627
3785.77202	0.10785
3783.84346	0.10967
3781.91489	0.11102
3779.98633	0.11241
3778.05776	0.11417
3776.12920	0.11525
3774.20063	0.11620
3772.27207	0.11812
3770.34351	0.12109
3768.41494	0.12397
3766.48638	0.12555
3764.55781	0.12704
3762.62925	0.12896
3760.70068	0.13113
3758.77212	0.13427
3756.84355	0.13756
3754.91499	0.13980
3752.98643	0.14247
3751.05786	0.14726
3749.12930	0.15242
3747.20073	0.15487
3745.27217	0.15691
3743.34360	0.16057
3741.41504	0.16407
3739.48647	0.16674
3737.55791	0.17054
3735.62935	0.17690
3733.70078	0.18397
3731.77222	0.18779
3729.84365	0.19015
3727.91509	0.19349
3725.98652	0.19865
3724.05796	0.20537
3722.12939	0.21209
3720.20083	0.21826
3718.27227	0.22449
3716.34370	0.23140
3714.41514	0.23916
3712.48657	0.24930
3710.55801	0.26368
3708.62944	0.27797
3706.70088	0.28852
3704.77231	0.29873
3702.84375	0.31159
3700.91519	0.32869
3698.98662	0.34720
3697.05806	0.36433
3695.12949	0.38256
3693.20093	0.40247
3691.27236	0.42448
3689.34380	0.45301
3687.41523	0.48755
3685.48667	0.51702
3683.55811	0.54226
3681.62954	0.56989
3679.70098	0.60152
3677.77241	0.63506
3675.84385	0.67500
3673.91528	0.72872
3671.98672	0.77227
3670.05815	0.81039
3668.12959	0.86234
3666.20103	0.90977
3664.27246	0.94996
3662.34390	0.99348
3660.41533	1.04060
3658.48677	1.08739
3656.55820	1.13725
3654.62964	1.19257
3652.70107	1.23931
3650.77251	1.28087
3648.84395	1.33859
3646.91538	1.40754
3644.98682	1.45672
3643.05825	1.49506
3641.12969	1.53522
3639.20112	1.57954
3637.27256	1.62396
3635.34399	1.66738
3633.41543	1.71106
3631.48687	1.75133
3629.55830	1.79167
3627.62974	1.84615
3625.70117	1.89792
3623.77261	1.93249
3621.84404	1.96540
3619.91548	2.00372
3617.98691	2.05097
3616.05835	2.09683
3614.12979	2.13436
3612.20122	2.17246
3610.27266	2.21114
3608.34409	2.25132
3606.41553	2.29389
3604.48696	2.33242
3602.55840	2.36681
3600.62983	2.40507
3598.70127	2.44700
3596.77271	2.48710
3594.84414	2.52785
3592.91558	2.57034
3590.98701	2.60946
3589.05845	2.64507
3587.12988	2.68721
3585.20132	2.73370
3583.27275	2.77426
3581.34419	2.81344
3579.41562	2.85502
3577.48706	2.89718
3575.55850	2.93941
3573.62993	2.98302
3571.70137	3.02516
3569.77280	3.06460
3567.84424	3.10597
3565.91567	3.15883
3563.98711	3.21274
3562.05854	3.25660
3560.12998	3.29914
3558.20142	3.34174
3556.27285	3.38281
3554.34429	3.42442
3552.41572	3.47097
3550.48716	3.52114
3548.55859	3.56856
3546.63003	3.61249
3544.70146	3.65792
3542.77290	3.70519
3540.84434	3.75041
3538.91577	3.79422
3536.98721	3.84139
3535.05864	3.89582
3533.13008	3.94880
3531.20151	3.99340
3529.27295	4.03575
3527.34438	4.08338
3525.41582	4.13378
3523.48726	4.18254
3521.55869	4.23178
3519.63013	4.27918
3517.70156	4.32518
3515.77300	4.37347
3513.84443	4.42247
3511.91587	4.46999
3509.98730	4.51887
3508.05874	4.57022
3506.13018	4.61637
3504.20161	4.65393
3502.27305	4.69281
3500.34448	4.74182
3498.41592	4.79706
3496.48735	4.85006
3494.55879	4.89780
3492.63022	4.94705
3490.70166	5.00151
3488.77310	5.05583
3486.84453	5.10742
3484.91597	5.15500
3482.98740	5.19379
3481.05884	5.23064
3479.13027	5.27481
3477.20171	5.32146
3475.27314	5.36733
3473.34458	5.41478
3471.41602	5.46536
3469.48745	5.51484
3467.55889	5.55826
3465.63032	5.60604
3463.70176	5.66431
3461.77319	5.72108
3459.84463	5.77662
3457.91606	5.82946
3455.98750	5.87397
3454.05894	5.92226
3452.13037	5.97835
3450.20181	6.03107
3448.27324	6.08333
3446.34468	6.13835
3444.41611	6.17846
3442.48755	6.21696
3440.55898	6.26369
3438.63042	6.29986
3436.70186	6.33510
3434.77329	6.39042
3432.84473	6.45521
3430.91616	6.51122
3428.98760	6.56435
3427.05903	6.61126
3425.13047	6.65842
3423.20190	6.71765
3421.27334	6.77238
3419.34478	6.80849
3417.41621	6.84635
3415.48765	6.88806
3413.55908	6.90865
3411.63052	6.93265
3409.70195	6.98267
3407.77339	7.03483
3405.84482	7.05896
3403.91626	7.08461
3401.98770	7.16168
3400.05913	7.26195
3398.13057	7.31367
3396.20200	7.33726
3394.27344	7.37855
3392.34487	7.39118
3390.41631	7.39050
3388.48774	7.44209
3386.55918	7.53703
3384.63062	7.56710
3382.70205	7.49735
3380.77349	7.46075
3378.84492	7.51220
3376.91636	7.58065
3374.98779	7.61467
3373.05923	7.65959
3371.13066	7.72411
3369.20210	7.75908
3367.27354	7.74831
3365.34497	7.72736
3363.41641	7.71445
3361.48784	7.72329
3359.55928	7.78076
3357.63071	7.84253
3355.70215	7.85485
3353.77358	7.83884
3351.84502	7.86924
3349.91646	7.95031
3347.98789	8.02491
3346.05933	8.02722
3344.13076	7.98249
3342.20220	7.98338
3340.27363	7.98305
3338.34507	7.96492
3336.41650	8.02019
3334.48794	8.12125
3332.55937	8.13343
3330.63081	8.09605
3328.70225	8.08327
3326.77368	8.08488
3324.84512	8.09693
3322.91655	8.07252
3320.98799	8.02551
3319.05942	8.01779
3317.13086	8.05322
3315.20229	8.09397
3313.27373	8.15270
3311.34517	8.21637
3309.41660	8.26365
3307.48804	8.30252
3305.55947	8.28273
3303.63091	8.23407
3301.70234	8.16508
3299.77378	8.06914
3297.84521	8.03041
3295.91665	8.08196
3293.98809	8.13126
3292.05952	8.13947
3290.13096	8.20009
3288.20239	8.34484
3286.27383	8.49027
3284.34526	8.49694
3282.41670	8.36327
3280.48813	8.22278
3278.55957	8.13005
3276.63101	8.07905
3274.70244	8.10695
3272.77388	8.21580
3270.84531	8.32459
3268.91675	8.35723
3266.98818	8.32590
3265.05962	8.29615
3263.13105	8.28993
3261.20249	8.29503
3259.27393	8.25856
3257.34536	8.21247
3255.41680	8.18957
3253.48823	8.14314
3251.55967	8.12804
3249.63110	8.18657
3247.70254	8.21115
3245.77397	8.14291
3243.84541	8.10540
3241.91685	8.10451
3239.98828	8.03515
3238.05972	7.98442
3236.13115	8.03168
3234.20259	8.05572
3232.27402	8.02815
3230.34546	8.05492
3228.41689	8.11627
3226.48833	8.12343
3224.55977	8.06297
3222.63120	8.03392
3220.70264	8.04110
3218.77407	8.00350
3216.84551	7.96840
3214.91694	7.95847
3212.98838	7.92617
3211.05981	7.88459
3209.13125	7.84538
3207.20269	7.79922
3205.27412	7.75459
3203.34556	7.71089
3201.41699	7.68730
3199.48843	7.68217
3197.55986	7.66477
3195.63130	7.64206
3193.70273	7.57456
3191.77417	7.44949
3189.84561	7.36408
3187.91704	7.34912
3185.98848	7.34049
3184.05991	7.30311
3182.13135	7.26686
3180.20278	7.24910
3178.27422	7.21138
3176.34565	7.13846
3174.41709	7.07863
3172.48853	7.04106
3170.55996	6.98865
3168.63140	6.92311
3166.70283	6.84268
3164.77427	6.74428
3162.84570	6.66770
3160.91714	6.62419
3158.98857	6.57827
3157.06001	6.51049
3155.13145	6.43529
3153.20288	6.35736
3151.27432	6.28368
3149.34575	6.22270
3147.41719	6.16515
3145.48862	6.11636
3143.56006	6.07380
3141.63149	6.00749
3139.70293	5.91483
3137.77437	5.82695
3135.84580	5.74880
3133.91724	5.67225
3131.98867	5.60054
3130.06011	5.52891
3128.13154	5.45843
3126.20298	5.39448
3124.27441	5.33368
3122.34585	5.27051
3120.41729	5.20057
3118.48872	5.12594
3116.56016	5.05599
3114.63159	4.99143
3112.70303	4.92475
3110.77446	4.85488
3108.84590	4.78477
3106.91733	4.71772
3104.98877	4.65057
3103.06021	4.57912
3101.13164	4.50997
3099.20308	4.44737
3097.27451	4.38713
3095.34595	4.32498
3093.41738	4.26085
3091.48882	4.19751
3089.56025	4.13424
3087.63169	4.07058
3085.70312	4.00917
3083.77456	3.95078
3081.84600	3.89541
3079.91743	3.84090
3077.98887	3.78377
3076.06030	3.72455
3074.13174	3.66563
3072.20317	3.60737
3070.27461	3.54995
3068.34604	3.49462
3066.41748	3.44110
3064.48892	3.38764
3062.56035	3.33318
3060.63179	3.27881
3058.70322	3.22553
3056.77466	3.17304
3054.84609	3.12141
3052.91753	3.07043
3050.98896	3.01959
3049.06040	2.96953
3047.13184	2.92126
3045.20327	2.87408
3043.27471	2.82686
3041.34614	2.77945
3039.41758	2.73201
3037.48901	2.68546
3035.56045	2.64013
3033.63188	2.59519
3031.70332	2.55122
3029.77476	2.50967
3027.84619	2.46888
3025.91763	2.42634
3023.98906	2.38327
3022.06050	2.34165
3020.13193	2.30115
3018.20337	2.26122
3016.27480	2.22195
3014.34624	2.18353
3012.41768	2.14561
3010.48911	2.10793
3008.56055	2.07130
3006.63198	2.03573
3004.70342	2.00037
3002.77485	1.96538
3000.84629	1.93166
2998.91772	1.89943
2996.98916	1.86818
2995.06060	1.83764
2993.13203	1.80748
2991.20347	1.77731
2989.27490	1.74730
2987.34634	1.71817
2985.41777	1.69052
2983.48921	1.66386
2981.56064	1.63751
2979.63208	1.61172
2977.70352	1.58659
2975.77495	1.56196
2973.84639	1.53815
2971.91782	1.51495
2969.98926	1.49192
2968.06069	1.46899
2966.13213	1.44606
2964.20356	1.42339
2962.27500	1.40093
2960.34644	1.37814
2958.41787	1.35491
2956.48931	1.33131
2954.56074	1.30759
2952.63218	1.28412
2950.70361	1.26098
2948.77505	1.23848
2946.84648	1.21691
2944.91792	1.19593
2942.98936	1.17553
2941.06079	1.15580
2939.13223	1.13623
2937.20366	1.11683
2935.27510	1.09770
2933.34653	1.07842
2931.41797	1.05882
2929.48940	1.03937
2927.56084	1.02016
2925.63228	1.00105
2923.70371	0.98289
2921.77515	0.96596
2919.84658	0.94918
2917.91802	0.93193
2915.98945	0.91470
2914.06089	0.89770
2912.13232	0.88091
2910.20376	0.86466
2908.27520	0.84903
2906.34663	0.83402
2904.41807	0.81987
2902.48950	0.80618
2900.56094	0.79220
2898.63237	0.77835
2896.70381	0.76526
2894.77524	0.75258
2892.84668	0.74002
2890.91812	0.72810
2888.98955	0.71707
2887.06099	0.70622
2885.13242	0.69541
2883.20386	0.68519
2881.27529	0.67566
2879.34673	0.66656
2877.41816	0.65752
2875.48960	0.64813
2873.56104	0.63834
2871.63247	0.62799
2869.70391	0.61688
2867.77534	0.60538
2865.84678	0.59375
2863.91821	0.58201
2861.98965	0.57049
2860.06108	0.55942
2858.13252	0.54877
2856.20396	0.53865
2854.27539	0.52905
2852.34683	0.51969
2850.41826	0.51056
2848.48970	0.50191
2846.56113	0.49393
2844.63257	0.48658
2842.70400	0.47977
2840.77544	0.47342
2838.84687	0.46735
2836.91831	0.46133
2834.98975	0.45508
2833.06118	0.44879
2831.13262	0.44274
2829.20405	0.43675
2827.27549	0.43073
2825.34692	0.42480
2823.41836	0.41881
2821.48979	0.41272
2819.56123	0.40676
2817.63267	0.40105
2815.70410	0.39540
2813.77554	0.38970
2811.84697	0.38423
2809.91841	0.37905
2807.98984	0.37380
2806.06128	0.36849
2804.13271	0.36334
2802.20415	0.35836
2800.27559	0.35339
2798.34702	0.34842
2796.41846	0.34351
2794.48989	0.33866
2792.56133	0.33397
2790.63276	0.32941
2788.70420	0.32485
2786.77563	0.32027
2784.84707	0.31580
2782.91851	0.31156
2780.98994	0.30757
2779.06138	0.30356
2777.13281	0.29936
2775.20425	0.29530
2773.27568	0.29153
2771.34712	0.28783
2769.41855	0.28412
2767.48999	0.28054
2765.56143	0.27715
2763.63286	0.27378
2761.70430	0.27037
2759.77573	0.26709
2757.84717	0.26395
2755.91860	0.26076
2753.99004	0.25748
2752.06147	0.25424
2750.13291	0.25117
2748.20435	0.24828
2746.27578	0.24549
2744.34722	0.24274
2742.41865	0.24004
2740.49009	0.23740
2738.56152	0.23478
2736.63296	0.23220
2734.70439	0.22965
2732.77583	0.22725
2730.84727	0.22499
2728.91870	0.22260
2726.99014	0.22022
2725.06157	0.21800
2723.13301	0.21568
2721.20444	0.21329
2719.27588	0.21113
2717.34731	0.20913
2715.41875	0.20713
2713.49019	0.20527
2711.56162	0.20366
2709.63306	0.20205
2707.70449	0.20031
2705.77593	0.19858
2703.84736	0.19698
2701.91880	0.19539
2699.99023	0.19371
2698.06167	0.19207
2696.13311	0.19058
2694.20454	0.18916
2692.27598	0.18777
2690.34741	0.18646
2688.41885	0.18521
2686.49028	0.18396
2684.56172	0.18273
2682.63315	0.18151
2680.70459	0.18035
2678.77603	0.17924
2676.84746	0.17808
2674.91890	0.17697
2672.99033	0.17586
2671.06177	0.17469
2669.13320	0.17363
2667.20464	0.17273
2665.27607	0.17180
2663.34751	0.17073
2661.41895	0.16960
2659.49038	0.16862
2657.56182	0.16788
2655.63325	0.16720
2653.70469	0.16643
2651.77612	0.16559
2649.84756	0.16479
2647.91899	0.16414
2645.99043	0.16366
2644.06187	0.16321
2642.13330	0.16255
2640.20474	0.16183
2638.27617	0.16140
2636.34761	0.16119
2634.41904	0.16079
2632.49048	0.16015
2630.56191	0.15949
2628.63335	0.15892
2626.70479	0.15840
2624.77622	0.15805
2622.84766	0.15793
2620.91909	0.15777
2618.99053	0.15740
2617.06196	0.15702
2615.13340	0.15669
2613.20483	0.15630
2611.27627	0.15589
2609.34771	0.15568
2607.41914	0.15564
2605.49058	0.15561
2603.56201	0.15550
2601.63345	0.15535
2599.70488	0.15523
2597.77632	0.15515
2595.84775	0.15523
2593.91919	0.15542
2591.99062	0.15545
2590.06206	0.15535
2588.13350	0.15527
2586.20493	0.15536
2584.27637	0.15571
2582.34780	0.15595
2580.41924	0.15601
2578.49067	0.15615
2576.56211	0.15642
2574.63354	0.15668
2572.70498	0.15684
2570.77642	0.15692
2568.84785	0.15713
2566.91929	0.15756
2564.99072	0.15803
2563.06216	0.15834
2561.13359	0.15857
2559.20503	0.15884
2557.27646	0.15912
2555.34790	0.15939
2553.41934	0.15975
2551.49077	0.16031
2549.56221	0.16100
2547.63364	0.16164
2545.70508	0.16224
2543.77651	0.16280
2541.84795	0.16326
2539.91938	0.16371
2537.99082	0.16418
2536.06226	0.16469
2534.13369	0.16534
2532.20513	0.16612
2530.27656	0.16686
2528.34800	0.16747
2526.41943	0.16806
2524.49087	0.16860
2522.56230	0.16914
2520.63374	0.16983
2518.70518	0.17040
2516.77661	0.17082
2514.84805	0.17149
2512.91948	0.17248
2510.99092	0.17338
2509.06235	0.17404
2507.13379	0.17474
2505.20522	0.17559
2503.27666	0.17645
2501.34810	0.17721
2499.41953	0.17803
2497.49097	0.17889
2495.56240	0.17954
2493.63384	0.18015
2491.70527	0.18090
2489.77671	0.18165
2487.84814	0.18241
2485.91958	0.18331
2483.99102	0.18420
2482.06245	0.18495
2480.13389	0.18567
2478.20532	0.18655
2476.27676	0.18751
2474.34819	0.18834
2472.41963	0.18906
2470.49106	0.18976
2468.56250	0.19055
2466.63394	0.19141
2464.70537	0.19227
2462.77681	0.19317
2460.84824	0.19411
2458.91968	0.19505
2456.99111	0.19597
2455.06255	0.19689
2453.13398	0.19782
2451.20542	0.19875
2449.27686	0.19966
2447.34829	0.20054
2445.41973	0.20150
2443.49116	0.20256
2441.56260	0.20352
2439.63403	0.20436
2437.70547	0.20522
2435.77690	0.20599
2433.84834	0.20667
2431.91978	0.20763
2429.99121	0.20891
2428.06265	0.21007
2426.13408	0.21091
2424.20552	0.21173
2422.27695	0.21284
2420.34839	0.21410
2418.41982	0.21527
2416.49126	0.21635
2414.56270	0.21740
2412.63413	0.21844
2410.70557	0.21953
2408.77700	0.22071
2406.84844	0.22191
2404.91987	0.22307
2402.99131	0.22418
2401.06274	0.22529
2399.13418	0.22643
2397.20562	0.22761
2395.27705	0.22883
2393.34849	0.23000
2391.41992	0.23112
2389.49136	0.23238
2387.56279	0.23397
2385.63423	0.23586
2383.70566	0.23803
2381.77710	0.24067
2379.84854	0.24381
2377.91997	0.24733
2375.99141	0.25124
2374.06284	0.25575
2372.13428	0.26089
2370.20571	0.26643
2368.27715	0.27212
2366.34858	0.27750
2364.42002	0.28165
2362.49146	0.28477
2360.56289	0.28747
2358.63433	0.28936
2356.70576	0.29047
2354.77720	0.28958
2352.84863	0.28631
2350.92007	0.28259
2348.99150	0.28044
2347.06294	0.28063
2345.13437	0.28372
2343.20581	0.28890
2341.27725	0.29309
2339.34868	0.29528
2337.42012	0.29609
2335.49155	0.29662
2333.56299	0.29756
2331.63442	0.29885
2329.70586	0.30016
2327.77729	0.30077
2325.84873	0.30067
2323.92017	0.30068
2321.99160	0.30068
2320.06304	0.30046
2318.13447	0.30034
2316.20591	0.30057
2314.27734	0.30120
2312.34878	0.30209
2310.42021	0.30314
2308.49165	0.30407
2306.56309	0.30470
2304.63452	0.30527
2302.70596	0.30602
2300.77739	0.30699
2298.84883	0.30812
2296.92026	0.30946
2294.99170	0.31096
2293.06313	0.31246
2291.13457	0.31385
2289.20601	0.31524
2287.27744	0.31667
2285.34888	0.31807
2283.42031	0.31960
2281.49175	0.32149
2279.56318	0.32360
2277.63462	0.32568
2275.70605	0.32783
2273.77749	0.33006
2271.84893	0.33218
2269.92036	0.33424
2267.99180	0.33629
2266.06323	0.33820
2264.13467	0.34000
2262.20610	0.34189
2260.27754	0.34389
2258.34897	0.34594
2256.42041	0.34796
2254.49185	0.34998
2252.56328	0.35211
2250.63472	0.35432
2248.70615	0.35644
2246.77759	0.35837
2244.84902	0.36022
2242.92046	0.36216
2240.99189	0.36426
2239.06333	0.36641
2237.13477	0.36859
2235.20620	0.37081
2233.27764	0.37310
2231.34907	0.37547
2229.42051	0.37768
2227.49194	0.37977
2225.56338	0.38187
2223.63481	0.38396
2221.70625	0.38606
2219.77769	0.38831
2217.84912	0.39059
2215.92056	0.39274
2213.99199	0.39477
2212.06343	0.39685
2210.13486	0.39904
2208.20630	0.40118
2206.27773	0.40317
2204.34917	0.40514
2202.42061	0.40716
2200.49204	0.40913
2198.56348	0.41101
2196.63491	0.41287
2194.70635	0.41484
2192.77778	0.41685
2190.84922	0.41875
2188.92065	0.42059
2186.99209	0.42244
2185.06353	0.42424
2183.13496	0.42596
2181.20640	0.42760
2179.27783	0.42911
2177.34927	0.43047
2175.42070	0.43187
2173.49214	0.43345
2171.56357	0.43505
2169.63501	0.43647
2167.70645	0.43767
2165.77788	0.43889
2163.84932	0.44025
2161.92075	0.44151
2159.99219	0.44253
2158.06362	0.44350
2156.13506	0.44449
2154.20649	0.44538
2152.27793	0.44620
2150.34937	0.44694
2148.42080	0.44750
2146.49224	0.44798
2144.56367	0.44854
2142.63511	0.44909
2140.70654	0.44955
2138.77798	0.44990
2136.84941	0.45013
2134.92085	0.45030
2132.99229	0.45040
2131.06372	0.45032
2129.13516	0.45013
2127.20659	0.44990
2125.27803	0.44957
2123.34946	0.44915
2121.42090	0.44876
2119.49233	0.44836
2117.56377	0.44786
2115.63521	0.44721
2113.70664	0.44654
2111.77808	0.44582
2109.84951	0.44493
2107.92095	0.44397
2105.99238	0.44291
2104.06382	0.44167
2102.13525	0.44029
2100.20669	0.43892
2098.27812	0.43762
2096.34956	0.43633
2094.42100	0.43491
2092.49243	0.43342
2090.56387	0.43200
2088.63530	0.43055
2086.70674	0.42891
2084.77817	0.42702
2082.84961	0.42513
2080.92104	0.42338
2078.99248	0.42156
2077.06392	0.41952
2075.13535	0.41737
2073.20679	0.41516
2071.27822	0.41297
2069.34966	0.41089
2067.42109	0.40885
2065.49253	0.40670
2063.56396	0.40440
2061.63540	0.40203
2059.70684	0.39963
2057.77827	0.39719
2055.84971	0.39458
2053.92114	0.39182
2051.99258	0.38919
2050.06401	0.38674
2048.13545	0.38432
2046.20688	0.38182
2044.27832	0.37925
2042.34976	0.37664
2040.42119	0.37403
2038.49263	0.37137
2036.56406	0.36857
2034.63550	0.36577
2032.70693	0.36309
2030.77837	0.36054
2028.84980	0.35790
2026.92124	0.35514
2024.99268	0.35236
2023.06411	0.34961
2021.13555	0.34692
2019.20698	0.34438
2017.27842	0.34185
2015.34985	0.33911
2013.42129	0.33628
2011.49272	0.33355
2009.56416	0.33098
2007.63560	0.32846
2005.70703	0.32580
2003.77847	0.32304
2001.84990	0.32040
1999.92134	0.31792
1997.99277	0.31545
1996.06421	0.31295
1994.13564	0.31056
1992.20708	0.30828
1990.27852	0.30585
1988.34995	0.30335
1986.42139	0.30081
1984.49282	0.29817
1982.56426	0.29564
1980.63569	0.29332
1978.70713	0.29114
1976.77856	0.28894
1974.85000	0.28672
1972.92144	0.28457
1970.99287	0.28252
1969.06431	0.28065
1967.13574	0.27885
1965.20718	0.27683
1963.27861	0.27474
1961.35005	0.27280
1959.42148	0.27088
1957.49292	0.26898
1955.56436	0.26719
1953.63579	0.26548
1951.70723	0.26375
1949.77866	0.26204
1947.85010	0.26049
1945.92153	0.25919
1943.99297	0.25798
1942.06440	0.25661
1940.13584	0.25494
1938.20728	0.25322
1936.27871	0.25169
1934.35015	0.25032
1932.42158	0.24907
1930.49302	0.24792
1928.56445	0.24686
1926.63589	0.24581
1924.70732	0.24489
1922.77876	0.24411
1920.85020	0.24321
1918.92163	0.24232
1916.99307	0.24141
1915.06450	0.24021
1913.13594	0.23909
1911.20737	0.23846
1909.27881	0.23806
1907.35024	0.23742
1905.42168	0.23654
1903.49312	0.23578
1901.56455	0.23519
1899.63599	0.23470
1897.70742	0.23434
1895.77886	0.23405
1893.85029	0.23376
1891.92173	0.23342
1889.99316	0.23320
1888.06460	0.23296
1886.13604	0.23263
1884.20747	0.23232
1882.27891	0.23202
1880.35034	0.23180
1878.42178	0.23171
1876.49321	0.23174
1874.56465	0.23176
1872.63608	0.23185
1870.70752	0.23230
1868.77896	0.23321
1866.85039	0.23355
1864.92183	0.23308
1862.99326	0.23276
1861.06470	0.23288
1859.13613	0.23325
1857.20757	0.23356
1855.27900	0.23390
1853.35044	0.23435
1851.42187	0.23492
1849.49331	0.23563
1847.56475	0.23653
1845.63618	0.23764
1843.70762	0.23879
1841.77905	0.23939
1839.85049	0.23952
1837.92192	0.24005
1835.99336	0.24083
1834.06479	0.24165
1832.13623	0.24274
1830.20767	0.24446
1828.27910	0.24604
1826.35054	0.24699
1824.42197	0.24814
1822.49341	0.24921
1820.56484	0.25013
1818.63628	0.25129
1816.70771	0.25286
1814.77915	0.25460
1812.85059	0.25659
1810.92202	0.25877
1808.99346	0.26071
1807.06489	0.26246
1805.13633	0.26429
1803.20776	0.26653
1801.27920	0.26917
1799.35063	0.27205
1797.42207	0.27457
1795.49351	0.27702
1793.56494	0.28006
1791.63638	0.28373
1789.70781	0.28669
1787.77925	0.28877
1785.85068	0.29166
1783.92212	0.29527
1781.99355	0.29914
1780.06499	0.30325
1778.13643	0.30748
1776.20786	0.31153
1774.27930	0.31612
1772.35073	0.32224
1770.42217	0.32840
1768.49360	0.33324
1766.56504	0.33793
1764.63647	0.34304
1762.70791	0.34896
1760.77935	0.35639
1758.85078	0.36320
1756.92222	0.37010
1754.99365	0.37771
1753.06509	0.38467
1751.13652	0.39310
1749.20796	0.40382
1747.27939	0.41424
1745.35083	0.42317
1743.42227	0.43249
1741.49370	0.44272
1739.56514	0.45493
1737.63657	0.46727
1735.70801	0.47813
1733.77944	0.49444
1731.85088	0.51375
1729.92231	0.52881
1727.99375	0.54399
1726.06519	0.56041
1724.13662	0.57851
1722.20806	0.59812
1720.27949	0.61635
1718.35093	0.63807
1716.42236	0.67016
1714.49380	0.69996
1712.56523	0.72382
1710.63667	0.74740
1708.70811	0.77327
1706.77954	0.80299
1704.85098	0.83867
1702.92241	0.87055
1700.99385	0.90233
1699.06528	0.94957
1697.13672	0.99297
1695.20815	1.03826
1693.27959	1.08285
1691.35103	1.11932
1689.42246	1.16188
1687.49390	1.20713
1685.56533	1.25142
1683.63677	1.32011
1681.70820	1.39036
1679.77964	1.43498
1677.85107	1.47809
1675.92251	1.52794
1673.99395	1.58972
1672.06538	1.64550
1670.13682	1.70143
1668.20825	1.77418
1666.27969	1.83319
1664.35112	1.88396
1662.42256	1.95001
1660.49399	2.02634
1658.56543	2.08582
1656.63687	2.13251
1654.70830	2.17426
1652.77974	2.23674
1650.85117	2.29359
1648.92261	2.31325
1646.99404	2.33791
1645.06548	2.36318
1643.13691	2.37963
1641.20835	2.38883
1639.27979	2.39649
1637.35122	2.39952
1635.42266	2.39552
1633.49409	2.38521
1631.56553	2.37019
1629.63696	2.35161
1627.70840	2.32071
1625.77983	2.28456
1623.85127	2.23787
1621.92271	2.17911
1619.99414	2.12750
1618.06558	2.07923
1616.13701	2.01150
1614.20845	1.94209
1612.27988	1.88933
1610.35132	1.83572
1608.42275	1.77846
1606.49419	1.72155
1604.56562	1.66899
1602.63706	1.61884
1600.70850	1.57001
1598.77993	1.52501
1596.85137	1.48331
1594.92280	1.44320
1592.99424	1.40409
1591.06567	1.36799
1589.13711	1.33467
1587.20854	1.30431
1585.27998	1.27650
1583.35142	1.25099
1581.42285	1.22853
1579.49429	1.21007
1577.56572	1.19410
1575.63716	1.17483
1573.70859	1.15792
1571.78003	1.14773
1569.85146	1.13862
1567.92290	1.12929
1565.99434	1.12301
1564.06577	1.11946
1562.13721	1.11787
1560.20864	1.12000
1558.28008	1.12955
1556.35151	1.13724
1554.42295	1.14057
1552.49438	1.14424
1550.56582	1.14656
1548.63726	1.14643
1546.70869	1.14322
1544.78013	1.13585
1542.85156	1.12380
1540.92300	1.10380
1538.99443	1.07084
1537.06587	1.04620
1535.13730	1.02950
1533.20874	1.00682
1531.28018	0.98189
1529.35161	0.96410
1527.42305	0.94805
1525.49448	0.93133
1523.56592	0.91696
1521.63735	0.90344
1519.70879	0.88984
1517.78022	0.87861
1515.85166	0.86548
1513.92310	0.85099
1511.99453	0.83820
1510.06597	0.82708
1508.13740	0.81656
1506.20884	0.79907
1504.28027	0.78303
1502.35171	0.77433
1500.42314	0.76723
1498.49458	0.75978
1496.56602	0.75092
1494.63745	0.74212
1492.70889	0.73558
1490.78032	0.73014
1488.85176	0.72386
1486.92319	0.71769
1484.99463	0.71292
1483.06606	0.70957
1481.13750	0.70726
1479.20894	0.70564
1477.28037	0.70505
1475.35181	0.70578
1473.42324	0.70747
1471.49468	0.70815
1469.56611	0.70654
1467.63755	0.70434
1465.70898	0.70283
1463.78042	0.70190
1461.85186	0.70132
1459.92329	0.70154
1457.99473	0.70269
1456.06616	0.70283
1454.13760	0.70009
1452.20903	0.69671
1450.28047	0.69351
1448.35190	0.69045
1446.42334	0.68717
1444.49478	0.68402
1442.56621	0.68105
1440.63765	0.67795
1438.70908	0.67485
1436.78052	0.67087
1434.85195	0.66601
1432.92339	0.66246
1430.99482	0.66039
1429.06626	0.65937
1427.13770	0.65923
1425.20913	0.65983
1423.28057	0.66093
1421.35200	0.66203
1419.42344	0.66323
1417.49487	0.66376
1415.56631	0.66271
1413.63774	0.66168
1411.70918	0.66176
1409.78062	0.66302
1407.85205	0.66506
1405.92349	0.66761
1403.99492	0.66997
1402.06636	0.67100
1400.13779	0.67084
1398.20923	0.66964
1396.28066	0.66705
1394.35210	0.66277
1392.42354	0.65750
1390.49497	0.65264
1388.56641	0.64798
1386.63784	0.64225
1384.70928	0.63567
1382.78071	0.62959
1380.85215	0.62430
1378.92358	0.61991
1376.99502	0.61659
1375.06646	0.61429
1373.13789	0.61259
1371.20933	0.61131
1369.28076	0.61043
1367.35220	0.60933
1365.42363	0.60778
1363.49507	0.60626
1361.56650	0.60482
1359.63794	0.60315
1357.70937	0.60153
1355.78081	0.60013
1353.85225	0.59890
1351.92368	0.59793
1349.99512	0.59734
1348.06655	0.59673
1346.13799	0.59586
1344.20942	0.59497
1342.28086	0.59430
1340.35229	0.59401
1338.42373	0.59372
1336.49517	0.59313
1334.56660	0.59265
1332.63804	0.59256
1330.70947	0.59280
1328.78091	0.59334
1326.85234	0.59418
1324.92378	0.59520
1322.99521	0.59639
1321.06665	0.59761
1319.13809	0.59866
1317.20952	0.59932
1315.28096	0.59964
1313.35239	0.59967
1311.42383	0.59933
1309.49526	0.59867
1307.56670	0.59796
1305.63813	0.59742
1303.70957	0.59700
1301.78101	0.59639
1299.85244	0.59553
1297.92388	0.59461
1295.99531	0.59349
1294.06675	0.59208
1292.13818	0.59069
1290.20962	0.58948
1288.28105	0.58826
1286.35249	0.58683
1284.42393	0.58526
1282.49536	0.58375
1280.56680	0.58232
1278.63823	0.58079
1276.70967	0.57922
1274.78110	0.57793
1272.85254	0.57696
1270.92397	0.57616
1268.99541	0.57546
1267.06685	0.57475
1265.13828	0.57374
1263.20972	0.57254
1261.28115	0.57150
1259.35259	0.57068
1257.42402	0.56994
1255.49546	0.56940
1253.56689	0.56926
1251.63833	0.56946
1249.70977	0.56972
1247.78120	0.56985
1245.85264	0.56979
1243.92407	0.56944
1241.99551	0.56859
1240.06694	0.56706
1238.13838	0.56495
1236.20981	0.56242
1234.28125	0.55962
1232.35269	0.55685
1230.42412	0.55426
1228.49556	0.55189
1226.56699	0.54974
1224.63843	0.54767
1222.70986	0.54571
1220.78130	0.54406
1218.85273	0.54259
1216.92417	0.54103
1214.99561	0.53949
1213.06704	0.53828
1211.13848	0.53754
1209.20991	0.53706
1207.28135	0.53653
1205.35278	0.53570
1203.42422	0.53459
1201.49565	0.53347
1199.56709	0.53261
1197.63853	0.53194
1195.70996	0.53131
1193.78140	0.53076
1191.85283	0.53025
1189.92427	0.52971
1187.99570	0.52935
1186.06714	0.52942
1184.13857	0.52984
1182.21001	0.53050
1180.28145	0.53144
1178.35288	0.53273
1176.42432	0.53433
1174.49575	0.53600
1172.56719	0.53715
1170.63862	0.53747
1168.71006	0.53741
1166.78149	0.53738
1164.85293	0.53733
1162.92437	0.53716
1160.99580	0.53688
1159.06724	0.53644
1157.13867	0.53582
1155.21011	0.53495
1153.28154	0.53377
1151.35298	0.53216
1149.42441	0.52995
1147.49585	0.52721
1145.56729	0.52420
1143.63872	0.52139
1141.71016	0.51921
1139.78159	0.51753
1137.85303	0.51611
1135.92446	0.51497
1133.99590	0.51431
1132.06733	0.51412
1130.13877	0.51399
1128.21021	0.51371
1126.28164	0.51340
1124.35308	0.51305
1122.42451	0.51272
1120.49595	0.51242
1118.56738	0.51229
1116.63882	0.51258
1114.71025	0.51301
1112.78169	0.51327
1110.85312	0.51357
1108.92456	0.51420
1106.99600	0.51505
1105.06743	0.51602
1103.13887	0.51718
1101.21030	0.51854
1099.28174	0.52026
1097.35317	0.52250
1095.42461	0.52518
1093.49604	0.52836
1091.56748	0.53243
1089.63892	0.53773
1087.71035	0.54434
1085.78179	0.55191
1083.85322	0.55975
1081.92466	0.56687
1079.99609	0.57213
1078.06753	0.57473
1076.13896	0.57448
1074.21040	0.57146
1072.28184	0.56611
1070.35327	0.55949
1068.42471	0.55250
1066.49614	0.54553
1064.56758	0.53903
1062.63901	0.53326
1060.71045	0.52830
1058.78188	0.52410
1056.85332	0.52033
1054.92476	0.51666
1052.99619	0.51325
1051.06763	0.51054
1049.13906	0.50855
1047.21050	0.50695
1045.28193	0.50576
1043.35337	0.50505
1041.42480	0.50442
1039.49624	0.50360
1037.56768	0.50295
1035.63911	0.50261
1033.71055	0.50215
1031.78198	0.50117
1029.85342	0.49981
1027.92485	0.49849
1025.99629	0.49740
1024.06772	0.49674
1022.13916	0.49654
1020.21060	0.49635
1018.28203	0.49596
1016.35347	0.49578
1014.42490	0.49603
1012.49634	0.49630
1010.56777	0.49651
1008.63921	0.49695
1006.71064	0.49767
1004.78208	0.49868
1002.85352	0.50032
1000.92495	0.50289
998.99639	0.50628
997.06782	0.51018
995.13926	0.51439
993.21069	0.51856
991.28213	0.52209
989.35356	0.52456
987.42500	0.52576
985.49644	0.52600
983.56787	0.52608
981.63931	0.52640
979.71074	0.52698
977.78218	0.52807
975.85361	0.52991
973.92505	0.53236
971.99648	0.53521
970.06792	0.53838
968.13936	0.54160
966.21079	0.54509
964.28223	0.54936
962.35366	0.55425
960.42510	0.55925
958.49653	0.56432
956.56797	0.56976
954.63940	0.57562
952.71084	0.58178
950.78228	0.58826
948.85371	0.59472
946.92515	0.60077
944.99658	0.60663
943.06802	0.61263
941.13945	0.61885
939.21089	0.62489
937.28232	0.63053
935.35376	0.63599
933.42520	0.64131
931.49663	0.64664
929.56807	0.65254
927.63950	0.65906
925.71094	0.66561
923.78237	0.67195
921.85381	0.67815
919.92524	0.68408
917.99668	0.69024
916.06812	0.69695
914.13955	0.70385
912.21099	0.71145
910.28242	0.72002
908.35386	0.72819
906.42529	0.73609
904.49673	0.74524
902.56816	0.75455
900.63960	0.76315
898.71104	0.77231
896.78247	0.78184
894.85391	0.79065
892.92534	0.79926
890.99678	0.80860
889.06821	0.81887
887.13965	0.82969
885.21108	0.84071
883.28252	0.85198
881.35396	0.86345
879.42539	0.87536
877.49683	0.88788
875.56826	0.90012
873.63970	0.91123
871.71113	0.92227
869.78257	0.93442
867.85400	0.94645
865.92544	0.95684
863.99687	0.96640
862.06831	0.97750
860.13975	0.98986
858.21118	1.00200
856.28262	1.01446
854.35405	1.02656
852.42549	1.03694
850.49692	1.04663
848.56836	1.05766
846.63979	1.06982
844.71123	1.08077
842.78267	1.09053
840.85410	1.10169
838.92554	1.11646
836.99697	1.13478
835.06841	1.15068
833.13984	1.15899
831.21128	1.16524
829.28271	1.17477
827.35415	1.18301
825.42559	1.18893
823.49702	1.20068
821.56846	1.21558
819.63989	1.22205
817.71133	1.22431
815.78276	1.23649
813.85420	1.25619
811.92563	1.27094
809.99707	1.28350
808.06851	1.30070
806.13994	1.31372
804.21138	1.31581
802.28281	1.32483
800.35425	1.34705
798.42568	1.37386
796.49712	1.39734
794.56855	1.39601
792.63999	1.38658
790.71143	1.37939
788.78286	1.34984
786.85430	1.34577
784.92573	1.39488
782.99717	1.42738
781.06860	1.40347
779.14004	1.38687
777.21147	1.41555
775.28291	1.45629
773.35435	1.44458
771.42578	1.39319
769.49722	1.35374
767.56865	1.32427
765.64009	1.28267
763.71152	1.23274
761.78296	1.23224
759.85439	1.23127
757.92583	1.12993
755.99727	1.04378
754.06870	1.04339
752.14014	1.03891
750.21157	0.98162
748.28301	0.94607
746.35444	0.94805
744.42588	0.98430
742.49731	1.02943
740.56875	0.99811
738.64019	0.88096
736.71162	0.77785
734.78306	0.73403
732.85449	0.70477
730.92593	0.62884
728.99736	0.53703
727.06880	0.42773
725.14023	0.26142
723.21167	0.16149
721.28311	0.19369
719.35454	0.23304
717.42598	0.18758
715.49741	0.12096
713.56885	0.05361
711.64028	-0.12023
709.71172	-0.26095
707.78315	-0.21804
705.85459	-0.18913
703.92603	-0.16416
701.99746	-0.07808
700.06890	0.02724
698.14033	0.08429
696.21177	0.09247
694.28320	0.11089
692.35464	0.15983
690.42607	0.14474
688.49751	0.07708
686.56895	0.06058
684.64038	0.08269
682.71182	0.08204
680.78325	0.07069
678.85469	0.09055
676.92612	0.13094
674.99756	0.14162
673.06899	0.13039
671.14043	0.11833
669.21187	0.11503
667.28330	0.11030
665.35474	0.05064
663.42617	-0.02444
661.49761	-0.03193
659.56904	-0.00570
657.64048	0.00491
655.71191	0.03192
653.78335	0.05708
651.85479	0.07136
649.92622	0.10018
647.99766	0.13244
646.06909	0.14062
644.14053	0.11323
642.21196	0.11455
640.28340	0.15292
638.35483	0.15995
636.42627	0.12921
634.49771	0.10050
632.56914	0.06913
630.64058	0.06007
628.71201	0.07869
626.78345	0.09634
624.85488	0.11426
622.92632	0.13067
620.99775	0.12526
619.06919	0.11086
617.14062	0.09934
615.21206	0.08085
613.28350	0.06383
611.35493	0.06870
609.42637	0.08758
607.49780	0.05707
605.56924	0.00177
603.64067	0.02895
601.71211	0.10889
599.78354	0.17222
597.85498	0.20173
595.92642	0.16078
593.99785	0.08540
592.06929	0.05948
590.14072	0.09536
588.21216	0.10750
586.28359	0.06532
584.35503	0.04318
582.42646	0.04715
580.49790	0.06054
578.56934	0.08338
576.64077	0.10526
574.71221	0.12106
572.78364	0.11433
570.85508	0.10063
568.92651	0.14350
566.99795	0.24259
565.06938	0.32717
563.14082	0.26264
561.21226	0.13377
559.28369	0.10445
557.35513	0.12971
555.42656	0.11325
553.49800	0.07619
551.56943	0.06460
549.64087	0.06666
547.71230	0.06142
545.78374	0.03811
543.85518	0.03842
541.92661	0.08665
539.99805	0.14794
538.06948	0.15163
536.14092	0.13592
534.21235	0.18341
532.28379	0.23015
530.35522	0.18069
528.42666	0.10907
526.49810	0.09523
524.56953	0.11303
522.64097	0.11602
520.71240	0.11365
518.78384	0.11890
516.85527	0.11885
514.92671	0.12431
512.99814	0.14581
511.06958	0.18053
509.14102	0.20781
507.21245	0.18755
505.28389	0.13692
503.35532	0.10942
501.42676	0.14362
499.49819	0.14353
