3997.91411	0.06638
3995.98555	0.06719
3994.05698	0.06813
3992.12842	0.06886
3990.19985	0.06924
3988.27129	0.06919
3986.34272	0.06885
3984.41416	0.06896
3982.48560	0.06940
3980.55703	0.06951
3978.62847	0.06957
3976.69990	0.06985
3974.77134	0.07007
3972.84277	0.07023
3970.91421	0.07053
3968.98564	0.07087
3967.05708	0.07103
3965.12852	0.07102
3963.19995	0.07109
3961.27139	0.07139
3959.34282	0.07161
3957.41426	0.07172
3955.48569	0.07198
3953.55713	0.07195
3951.62856	0.07156
3949.70000	0.07152
3947.77144	0.07174
3945.84287	0.07176
3943.91431	0.07184
3941.98574	0.07226
3940.05718	0.07249
3938.12861	0.07222
3936.20005	0.07181
3934.27148	0.07155
3932.34292	0.07153
3930.41436	0.07152
3928.48579	0.07142
3926.55723	0.07135
3924.62866	0.07136
3922.70010	0.07145
3920.77153	0.07151
3918.84297	0.07161
3916.91440	0.07176
3914.98584	0.07172
3913.05728	0.07122
3911.12871	0.07060
3909.20015	0.07053
3907.27158	0.07082
3905.34302	0.07085
3903.41445	0.07092
3901.48589	0.07141
3899.55732	0.07181
3897.62876	0.07182
3895.70020	0.07144
3893.77163	0.07103
3891.84307	0.07082
3889.91450	0.07068
3887.98594	0.07049
3886.05737	0.07034
3884.12881	0.07049
3882.20024	0.07108
3880.27168	0.07187
3878.34312	0.07207
3876.41455	0.07151
3874.48599	0.07133
3872.55742	0.07183
3870.62886	0.07257
3868.70029	0.07328
3866.77173	0.07355
3864.84316	0.07368
3862.91460	0.07381
3860.98604	0.07373
3859.05747	0.07394
3857.12891	0.07449
3855.20034	0.07510
3853.27178	0.07617
3851.34321	0.07763
3849.41465	0.07775
3847.48608	0.07733
3845.55752	0.07720
3843.62896	0.07750
3841.70039	0.07831
3839.77183	0.07958
3837.84326	0.08077
3835.91470	0.08114
3833.98613	0.08118
3832.05757	0.08156
3830.12900	0.08186
3828.20044	0.08194
3826.27187	0.08244
3824.34331	0.08350
3822.41475	0.08483
3820.48618	0.08675
3818.55762	0.08817
3816.62905	0.08848
3814.70049	0.08894
3812.77192	0.08941
3810.84336	0.08989
3808.91479	0.09083
3806.98623	0.09215
3805.05767	0.09328
3803.12910	0.09417
3801.20054	0.09565
3799.27197	0.09693
3797.34341	0.09725
3795.41484	0.09820
3793.48628	0.09963
3791.55771	0.10092
3789.62915	0.10236
3787.70059	0.10366
3785.77202	0.10481
3783.84346	0.10627
3781.91489	0.10793
3779.98633	0.10967
3778.05776	0.11153
3776.12920	0.11287
3774.20063	0.11383
3772.27207	0.11496
3770.34351	0.11653
3768.41494	0.11874
3766.48638	0.12118
3764.55781	0.12347
3762.62925	0.12516
3760.70068	0.12678
3758.77212	0.12926
3756.84355	0.13184
3754.91499	0.13373
3752.98643	0.13578
3751.05786	0.13897
3749.12930	0.14293
3747.20073	0.14546
3745.27217	0.14744
3743.34360	0.15149
3741.41504	0.15579
3739.48647	0.15838
3737.55791	0.16104
3735.62935	0.16491
3733.70078	0.16945
3731.77222	0.17380
3729.84365	0.17833
3727.91509	0.18287
3725.98652	0.18815
3724.05796	0.19456
3722.12939	0.20135
3720.20083	0.20866
3718.27227	0.21655
3716.34370	0.22445
3714.41514	0.23192
3712.48657	0.24050
3710.55801	0.25269
3708.62944	0.26679
3706.70088	0.27918
3704.77231	0.29046
3702.84375	0.30297
3700.91519	0.31944
3698.98662	0.33818
3697.05806	0.35592
3695.12949	0.37437
3693.20093	0.39402
3691.27236	0.41512
3689.34380	0.44200
3687.41523	0.47555
3685.48667	0.50637
3683.55811	0.53360
3681.62954	0.56214
3679.70098	0.59356
3677.77241	0.62628
3675.84385	0.66485
3673.91528	0.71771
3671.98672	0.76164
3670.05815	0.80004
3668.12959	0.85255
3666.20103	0.90087
3664.27246	0.94146
3662.34390	0.98514
3660.41533	1.03201
3658.48677	1.07768
3656.55820	1.12650
3654.62964	1.18177
3652.70107	1.22806
3650.77251	1.26725
3648.84395	1.32115
3646.91538	1.38996
3644.98682	1.44186
3643.05825	1.48103
3641.12969	1.52108
3639.20112	1.56583
3637.27256	1.61058
3635.34399	1.65342
3633.41543	1.69602
3631.48687	1.73570
3629.55830	1.77572
3627.62974	1.82912
3625.70117	1.88057
3623.77261	1.91576
3621.84404	1.94915
3619.91548	1.98753
3617.98691	2.03380
3616.05835	2.07820
3614.12979	2.11539
3612.20122	2.15406
3610.27266	2.19263
3608.34409	2.23200
3606.41553	2.27522
3604.48696	2.31556
3602.55840	2.35079
3600.62983	2.38799
3598.70127	2.42793
3596.77271	2.46701
3594.84414	2.50688
3592.91558	2.54871
3590.98701	2.58959
3589.05845	2.62812
3587.12988	2.67209
3585.20132	2.71951
3583.27275	2.76095
3581.34419	2.79964
3579.41562	2.83910
3577.48706	2.88024
3575.55850	2.92359
3573.62993	2.96820
3571.70137	3.01026
3569.77280	3.05049
3567.84424	3.09380
3565.91567	3.14478
3563.98711	3.19291
3562.05854	3.23321
3560.12998	3.27497
3558.20142	3.32067
3556.27285	3.36790
3554.34429	3.41482
3552.41572	3.46330
3550.48716	3.51057
3548.55859	3.55429
3546.63003	3.59960
3544.70146	3.65048
3542.77290	3.70044
3540.84434	3.74330
3538.91577	3.78442
3536.98721	3.82987
3535.05864	3.88026
3533.13008	3.92933
3531.20151	3.97461
3529.27295	4.01968
3527.34438	4.06767
3525.41582	4.11661
3523.48726	4.16522
3521.55869	4.21352
3519.63013	4.26051
3517.70156	4.31001
3515.77300	4.35845
3513.84443	4.40188
3511.91587	4.44641
3509.98730	4.49684
3508.05874	4.55175
3506.13018	4.60326
3504.20161	4.64469
3502.27305	4.68238
3500.34448	4.72731
3498.41592	4.78050
3496.48735	4.83675
3494.55879	4.88518
3492.63022	4.92051
3490.70166	4.95665
3488.77310	5.00606
3486.84453	5.06351
3484.91597	5.12152
3482.98740	5.17588
3481.05884	5.21753
3479.13027	5.25021
3477.20171	5.29917
3475.27314	5.36966
3473.34458	5.43735
3471.41602	5.48648
3469.48745	5.52256
3467.55889	5.56017
3465.63032	5.60976
3463.70176	5.66191
3461.77319	5.69755
3459.84463	5.73037
3457.91606	5.78596
3455.98750	5.84878
3454.05894	5.89490
3452.13037	5.94104
3450.20181	5.99888
3448.27324	6.04859
3446.34468	6.09329
3444.41611	6.14712
3442.48755	6.20515
3440.55898	6.25528
3438.63042	6.29416
3436.70186	6.32406
3434.77329	6.36311
3432.84473	6.44076
3430.91616	6.52543
3428.98760	6.56689
3427.05903	6.60464
3425.13047	6.67839
3423.20190	6.74720
3421.27334	6.79489
3419.34478	6.82238
3417.41621	6.83029
3415.48765	6.85709
3413.55908	6.92017
3411.63052	6.99304
3409.70195	7.02450
3407.77339	7.02742
3405.84482	7.04745
3403.91626	7.10638
3401.98770	7.19069
3400.05913	7.25921
3398.13057	7.29371
3396.20200	7.31746
3394.27344	7.36513
3392.34487	7.42314
3390.41631	7.47232
3388.48774	7.49135
3386.55918	7.49737
3384.63062	7.52438
3382.70205	7.57097
3380.77349	7.61124
3378.84492	7.62548
3376.91636	7.66769
3374.98779	7.77346
3373.05923	7.87113
3371.13066	7.87197
3369.20210	7.82649
3367.27354	7.77665
3365.34497	7.76452
3363.41641	7.82058
3361.48784	7.84400
3359.55928	7.79249
3357.63071	7.76515
3355.70215	7.83631
3353.77358	7.89364
3351.84502	7.85990
3349.91646	7.86088
3347.98789	7.95099
3346.05933	8.01238
3344.13076	7.99656
3342.20220	7.99879
3340.27363	8.00899
3338.34507	8.00699
3336.41650	8.01885
3334.48794	8.03120
3332.55937	8.01929
3330.63081	8.03621
3328.70225	8.08907
3326.77368	8.10785
3324.84512	8.10724
3322.91655	8.11488
3320.98799	8.10428
3319.05942	8.05490
3317.13086	8.06288
3315.20229	8.11354
3313.27373	8.06552
3311.34517	7.97806
3309.41660	7.94212
3307.48804	7.91131
3305.55947	7.88790
3303.63091	7.93801
3301.70234	8.03680
3299.77378	8.14936
3297.84521	8.20969
3295.91665	8.17450
3293.98809	8.16812
3292.05952	8.29227
3290.13096	8.45998
3288.20239	8.46010
3286.27383	8.30264
3284.34526	8.15673
3282.41670	8.11314
3280.48813	8.16104
3278.55957	8.22414
3276.63101	8.21486
3274.70244	8.17968
3272.77388	8.24816
3270.84531	8.36336
3268.91675	8.35495
3266.98818	8.23572
3265.05962	8.13155
3263.13105	8.09249
3261.20249	8.10135
3259.27393	8.12539
3257.34536	8.20226
3255.41680	8.30497
3253.48823	8.27678
3251.55967	8.15779
3249.63110	8.09741
3247.70254	8.10414
3245.77397	8.15366
3243.84541	8.26401
3241.91685	8.35324
3239.98828	8.33613
3238.05972	8.28929
3236.13115	8.25847
3234.20259	8.19733
3232.27402	8.08176
3230.34546	8.00477
3228.41689	8.02468
3226.48833	8.03902
3224.55977	7.97528
3222.63120	7.91986
3220.70264	7.93589
3218.77407	7.99232
3216.84551	8.02228
3214.91694	7.98086
3212.98838	7.93399
3211.05981	7.93757
3209.13125	7.92765
3207.20269	7.90364
3205.27412	7.88857
3203.34556	7.86214
3201.41699	7.85003
3199.48843	7.81763
3197.55986	7.75011
3195.63130	7.70968
3193.70273	7.66402
3191.77417	7.58134
3189.84561	7.50595
3187.91704	7.41539
3185.98848	7.30698
3184.05991	7.25582
3182.13135	7.27904
3180.20278	7.30402
3178.27422	7.26700
3176.34565	7.20627
3174.41709	7.14611
3172.48853	7.06142
3170.55996	6.97108
3168.63140	6.90902
3166.70283	6.85107
3164.77427	6.76664
3162.84570	6.70328
3160.91714	6.66941
3158.98857	6.59724
3157.06001	6.48612
3155.13145	6.40087
3153.20288	6.35160
3151.27432	6.30691
3149.34575	6.25668
3147.41719	6.20455
3145.48862	6.15118
3143.56006	6.07738
3141.63149	5.97671
3139.70293	5.88128
3137.77437	5.81324
3135.84580	5.75869
3133.91724	5.69902
3131.98867	5.63400
3130.06011	5.56416
3128.13154	5.48726
3126.20298	5.41210
3124.27441	5.34576
3122.34585	5.27808
3120.41729	5.20399
3118.48872	5.13136
3116.56016	5.06703
3114.63159	5.00819
3112.70303	4.94122
3110.77446	4.86242
3108.84590	4.78393
3106.91733	4.71521
3104.98877	4.65143
3103.06021	4.58527
3101.13164	4.51834
3099.20308	4.45540
3097.27451	4.39568
3095.34595	4.33300
3093.41738	4.26755
3091.48882	4.20347
3089.56025	4.14046
3087.63169	4.07906
3085.70312	4.02087
3083.77456	3.96371
3081.84600	3.90341
3079.91743	3.84030
3077.98887	3.77918
3076.06030	3.72092
3074.13174	3.66340
3072.20317	3.60705
3070.27461	3.55212
3068.34604	3.49753
3066.41748	3.44297
3064.48892	3.38907
3062.56035	3.33576
3060.63179	3.28254
3058.70322	3.22975
3056.77466	3.17749
3054.84609	3.12619
3052.91753	3.07656
3050.98896	3.02709
3049.06040	2.97635
3047.13184	2.92591
3045.20327	2.87732
3043.27471	2.83016
3041.34614	2.78346
3039.41758	2.73649
3037.48901	2.68940
3035.56045	2.64329
3033.63188	2.59891
3031.70332	2.55566
3029.77476	2.51309
3027.84619	2.47140
3025.91763	2.42946
3023.98906	2.38637
3022.06050	2.34352
3020.13193	2.30241
3018.20337	2.26280
3016.27480	2.22376
3014.34624	2.18477
3012.41768	2.14577
3010.48911	2.10758
3008.56055	2.07145
3006.63198	2.03710
3004.70342	2.00328
3002.77485	1.96950
3000.84629	1.93563
2998.91772	1.90195
2996.98916	1.86948
2995.06060	1.83868
2993.13203	1.80885
2991.20347	1.77964
2989.27490	1.75117
2987.34634	1.72292
2985.41777	1.69486
2983.48921	1.66762
2981.56064	1.64070
2979.63208	1.61413
2977.70352	1.58882
2975.77495	1.56430
2973.84639	1.53995
2971.91782	1.51643
2969.98926	1.49392
2968.06069	1.47174
2966.13213	1.44948
2964.20356	1.42710
2962.27500	1.40459
2960.34644	1.38174
2958.41787	1.35836
2956.48931	1.33465
2954.56074	1.31089
2952.63218	1.28769
2950.70361	1.26558
2948.77505	1.24409
2946.84648	1.22261
2944.91792	1.20133
2942.98936	1.18096
2941.06079	1.16202
2939.13223	1.14352
2937.20366	1.12436
2935.27510	1.10471
2933.34653	1.08528
2931.41797	1.06649
2929.48940	1.04789
2927.56084	1.02906
2925.63228	1.01037
2923.70371	0.99206
2921.77515	0.97377
2919.84658	0.95601
2917.91802	0.93941
2915.98945	0.92304
2914.06089	0.90594
2912.13232	0.88859
2910.20376	0.87195
2908.27520	0.85639
2906.34663	0.84148
2904.41807	0.82666
2902.48950	0.81209
2900.56094	0.79811
2898.63237	0.78447
2896.70381	0.77123
2894.77524	0.75856
2892.84668	0.74619
2890.91812	0.73427
2888.98955	0.72308
2887.06099	0.71219
2885.13242	0.70150
2883.20386	0.69146
2881.27529	0.68197
2879.34673	0.67256
2877.41816	0.66329
2875.48960	0.65421
2873.56104	0.64457
2871.63247	0.63405
2869.70391	0.62309
2867.77534	0.61175
2865.84678	0.60006
2863.91821	0.58820
2861.98965	0.57648
2860.06108	0.56542
2858.13252	0.55496
2856.20396	0.54496
2854.27539	0.53542
2852.34683	0.52613
2850.41826	0.51702
2848.48970	0.50823
2846.56113	0.49975
2844.63257	0.49156
2842.70400	0.48409
2840.77544	0.47755
2838.84687	0.47139
2836.91831	0.46515
2834.98975	0.45875
2833.06118	0.45226
2831.13262	0.44580
2829.20405	0.43952
2827.27549	0.43352
2825.34692	0.42747
2823.41836	0.42129
2821.48979	0.41526
2819.56123	0.40934
2817.63267	0.40339
2815.70410	0.39759
2813.77554	0.39201
2811.84697	0.38653
2809.91841	0.38119
2807.98984	0.37604
2806.06128	0.37075
2804.13271	0.36514
2802.20415	0.35977
2800.27559	0.35495
2798.34702	0.35021
2796.41846	0.34531
2794.48989	0.34046
2792.56133	0.33569
2790.63276	0.33107
2788.70420	0.32662
2786.77563	0.32231
2784.84707	0.31812
2782.91851	0.31388
2780.98994	0.30951
2779.06138	0.30523
2777.13281	0.30116
2775.20425	0.29721
2773.27568	0.29330
2771.34712	0.28952
2769.41855	0.28584
2767.48999	0.28228
2765.56143	0.27883
2763.63286	0.27548
2761.70430	0.27219
2759.77573	0.26872
2757.84717	0.26510
2755.91860	0.26174
2753.99004	0.25869
2752.06147	0.25580
2750.13291	0.25294
2748.20435	0.25003
2746.27578	0.24702
2744.34722	0.24407
2742.41865	0.24126
2740.49009	0.23857
2738.56152	0.23599
2736.63296	0.23351
2734.70439	0.23104
2732.77583	0.22849
2730.84727	0.22603
2728.91870	0.22371
2726.99014	0.22136
2725.06157	0.21904
2723.13301	0.21688
2721.20444	0.21480
2719.27588	0.21277
2717.34731	0.21079
2715.41875	0.20875
2713.49019	0.20667
2711.56162	0.20480
2709.63306	0.20310
2707.70449	0.20131
2705.77593	0.19947
2703.84736	0.19778
2701.91880	0.19622
2699.99023	0.19472
2698.06167	0.19318
2696.13311	0.19163
2694.20454	0.19020
2692.27598	0.18883
2690.34741	0.18749
2688.41885	0.18626
2686.49028	0.18500
2684.56172	0.18356
2682.63315	0.18223
2680.70459	0.18124
2678.77603	0.18021
2676.84746	0.17893
2674.91890	0.17759
2672.99033	0.17635
2671.06177	0.17513
2669.13320	0.17396
2667.20464	0.17293
2665.27607	0.17204
2663.34751	0.17118
2661.41895	0.17028
2659.49038	0.16944
2657.56182	0.16863
2655.63325	0.16769
2653.70469	0.16677
2651.77612	0.16605
2649.84756	0.16543
2647.91899	0.16471
2645.99043	0.16389
2644.06187	0.16310
2642.13330	0.16248
2640.20474	0.16196
2638.27617	0.16152
2636.34761	0.16111
2634.41904	0.16058
2632.49048	0.15995
2630.56191	0.15936
2628.63335	0.15885
2626.70479	0.15839
2624.77622	0.15800
2622.84766	0.15770
2620.91909	0.15737
2618.99053	0.15699
2617.06196	0.15659
2615.13340	0.15626
2613.20483	0.15609
2611.27627	0.15598
2609.34771	0.15578
2607.41914	0.15552
2605.49058	0.15530
2603.56201	0.15515
2601.63345	0.15512
2599.70488	0.15521
2597.77632	0.15528
2595.84775	0.15528
2593.91919	0.15528
2591.99062	0.15530
2590.06206	0.15524
2588.13350	0.15501
2586.20493	0.15487
2584.27637	0.15511
2582.34780	0.15551
2580.41924	0.15584
2578.49067	0.15608
2576.56211	0.15629
2574.63354	0.15647
2572.70498	0.15653
2570.77642	0.15668
2568.84785	0.15715
2566.91929	0.15767
2564.99072	0.15797
2563.06216	0.15813
2561.13359	0.15829
2559.20503	0.15858
2557.27646	0.15919
2555.34790	0.15984
2553.41934	0.16024
2551.49077	0.16049
2549.56221	0.16075
2547.63364	0.16116
2545.70508	0.16181
2543.77651	0.16248
2541.84795	0.16307
2539.91938	0.16357
2537.99082	0.16401
2536.06226	0.16459
2534.13369	0.16535
2532.20513	0.16596
2530.27656	0.16628
2528.34800	0.16674
2526.41943	0.16759
2524.49087	0.16850
2522.56230	0.16920
2520.63374	0.16975
2518.70518	0.17029
2516.77661	0.17093
2514.84805	0.17157
2512.91948	0.17212
2510.99092	0.17274
2509.06235	0.17347
2507.13379	0.17418
2505.20522	0.17499
2503.27666	0.17591
2501.34810	0.17669
2499.41953	0.17736
2497.49097	0.17818
2495.56240	0.17905
2493.63384	0.17966
2491.70527	0.18023
2489.77671	0.18105
2487.84814	0.18198
2485.91958	0.18284
2483.99102	0.18362
2482.06245	0.18431
2480.13389	0.18503
2478.20532	0.18586
2476.27676	0.18673
2474.34819	0.18764
2472.41963	0.18850
2470.49106	0.18930
2468.56250	0.19020
2466.63394	0.19117
2464.70537	0.19208
2462.77681	0.19285
2460.84824	0.19354
2458.91968	0.19427
2456.99111	0.19514
2455.06255	0.19610
2453.13398	0.19694
2451.20542	0.19781
2449.27686	0.19887
2447.34829	0.19993
2445.41973	0.20086
2443.49116	0.20175
2441.56260	0.20265
2439.63403	0.20356
2437.70547	0.20452
2435.77690	0.20557
2433.84834	0.20666
2431.91978	0.20763
2429.99121	0.20845
2428.06265	0.20925
2426.13408	0.21017
2424.20552	0.21122
2422.27695	0.21235
2420.34839	0.21344
2418.41982	0.21447
2416.49126	0.21551
2414.56270	0.21665
2412.63413	0.21777
2410.70557	0.21872
2408.77700	0.21959
2406.84844	0.22065
2404.91987	0.22193
2402.99131	0.22328
2401.06274	0.22453
2399.13418	0.22556
2397.20562	0.22659
2395.27705	0.22784
2393.34849	0.22910
2391.41992	0.23017
2389.49136	0.23116
2387.56279	0.23225
2385.63423	0.23340
2383.70566	0.23435
2381.77710	0.23493
2379.84854	0.23532
2377.91997	0.23561
2375.99141	0.23561
2374.06284	0.23546
2372.13428	0.23515
2370.20571	0.23446
2368.27715	0.23366
2366.34858	0.23346
2364.42002	0.23502
2362.49146	0.23798
2360.56289	0.23927
2358.63433	0.23883
2356.70576	0.23965
2354.77720	0.24261
2352.84863	0.24651
2350.92007	0.24966
2348.99150	0.25164
2347.06294	0.25268
2345.13437	0.25296
2343.20581	0.25316
2341.27725	0.25413
2339.34868	0.25545
2337.42012	0.25746
2335.49155	0.26042
2333.56299	0.26278
2331.63442	0.26399
2329.70586	0.26508
2327.77729	0.26718
2325.84873	0.27028
2323.92017	0.27318
2321.99160	0.27537
2320.06304	0.27763
2318.13447	0.28029
2316.20591	0.28267
2314.27734	0.28463
2312.34878	0.28666
2310.42021	0.28898
2308.49165	0.29132
2306.56309	0.29354
2304.63452	0.29563
2302.70596	0.29736
2300.77739	0.29885
2298.84883	0.30063
2296.92026	0.30287
2294.99170	0.30514
2293.06313	0.30719
2291.13457	0.30913
2289.20601	0.31109
2287.27744	0.31312
2285.34888	0.31516
2283.42031	0.31715
2281.49175	0.31910
2279.56318	0.32102
2277.63462	0.32296
2275.70605	0.32500
2273.77749	0.32705
2271.84893	0.32904
2269.92036	0.33101
2267.99180	0.33297
2266.06323	0.33497
2264.13467	0.33708
2262.20610	0.33929
2260.27754	0.34149
2258.34897	0.34365
2256.42041	0.34581
2254.49185	0.34796
2252.56328	0.35005
2250.63472	0.35212
2248.70615	0.35418
2246.77759	0.35639
2244.84902	0.35883
2242.92046	0.36120
2240.99189	0.36333
2239.06333	0.36545
2237.13477	0.36764
2235.20620	0.36980
2233.27764	0.37196
2231.34907	0.37411
2229.42051	0.37629
2227.49194	0.37846
2225.56338	0.38053
2223.63481	0.38268
2221.70625	0.38503
2219.77769	0.38735
2217.84912	0.38948
2215.92056	0.39156
2213.99199	0.39367
2212.06343	0.39582
2210.13486	0.39803
2208.20630	0.40013
2206.27773	0.40205
2204.34917	0.40394
2202.42061	0.40592
2200.49204	0.40799
2198.56348	0.41006
2196.63491	0.41204
2194.70635	0.41394
2192.77778	0.41569
2190.84922	0.41741
2188.92065	0.41929
2186.99209	0.42117
2185.06353	0.42287
2183.13496	0.42452
2181.20640	0.42624
2179.27783	0.42786
2177.34927	0.42934
2175.42070	0.43094
2173.49214	0.43263
2171.56357	0.43412
2169.63501	0.43537
2167.70645	0.43655
2165.77788	0.43782
2163.84932	0.43921
2161.92075	0.44037
2159.99219	0.44122
2158.06362	0.44215
2156.13506	0.44326
2154.20649	0.44425
2152.27793	0.44511
2150.34937	0.44595
2148.42080	0.44663
2146.49224	0.44708
2144.56367	0.44744
2142.63511	0.44781
2140.70654	0.44814
2138.77798	0.44847
2136.84941	0.44878
2134.92085	0.44897
2132.99229	0.44898
2131.06372	0.44893
2129.13516	0.44885
2127.20659	0.44873
2125.27803	0.44855
2123.34946	0.44815
2121.42090	0.44753
2119.49233	0.44681
2117.56377	0.44613
2115.63521	0.44556
2113.70664	0.44502
2111.77808	0.44433
2109.84951	0.44344
2107.92095	0.44242
2105.99238	0.44125
2104.06382	0.44000
2102.13525	0.43875
2100.20669	0.43748
2098.27812	0.43625
2096.34956	0.43499
2094.42100	0.43358
2092.49243	0.43200
2090.56387	0.43026
2088.63530	0.42850
2086.70674	0.42693
2084.77817	0.42541
2082.84961	0.42376
2080.92104	0.42185
2078.99248	0.41968
2077.06392	0.41750
2075.13535	0.41549
2073.20679	0.41346
2071.27822	0.41127
2069.34966	0.40901
2067.42109	0.40678
2065.49253	0.40460
2063.56396	0.40238
2061.63540	0.39999
2059.70684	0.39745
2057.77827	0.39495
2055.84971	0.39250
2053.92114	0.39004
2051.99258	0.38766
2050.06401	0.38522
2048.13545	0.38269
2046.20688	0.38011
2044.27832	0.37747
2042.34976	0.37483
2040.42119	0.37226
2038.49263	0.36962
2036.56406	0.36686
2034.63550	0.36401
2032.70693	0.36120
2030.77837	0.35853
2028.84980	0.35591
2026.92124	0.35325
2024.99268	0.35050
2023.06411	0.34775
2021.13555	0.34505
2019.20698	0.34242
2017.27842	0.33979
2015.34985	0.33705
2013.42129	0.33429
2011.49272	0.33164
2009.56416	0.32910
2007.63560	0.32647
2005.70703	0.32374
2003.77847	0.32111
2001.84990	0.31861
1999.92134	0.31617
1997.99277	0.31369
1996.06421	0.31112
1994.13564	0.30853
1992.20708	0.30599
1990.27852	0.30347
1988.34995	0.30107
1986.42139	0.29876
1984.49282	0.29639
1982.56426	0.29399
1980.63569	0.29170
1978.70713	0.28952
1976.77856	0.28730
1974.85000	0.28509
1972.92144	0.28296
1970.99287	0.28093
1969.06431	0.27891
1967.13574	0.27688
1965.20718	0.27492
1963.27861	0.27299
1961.35005	0.27103
1959.42148	0.26912
1957.49292	0.26725
1955.56436	0.26544
1953.63579	0.26378
1951.70723	0.26217
1949.77866	0.26055
1947.85010	0.25897
1945.92153	0.25743
1943.99297	0.25596
1942.06440	0.25455
1940.13584	0.25313
1938.20728	0.25167
1936.27871	0.25020
1934.35015	0.24889
1932.42158	0.24780
1930.49302	0.24673
1928.56445	0.24560
1926.63589	0.24435
1924.70732	0.24316
1922.77876	0.24214
1920.85020	0.24123
1918.92163	0.24040
1916.99307	0.23960
1915.06450	0.23876
1913.13594	0.23799
1911.20737	0.23729
1909.27881	0.23648
1907.35024	0.23569
1905.42168	0.23505
1903.49312	0.23449
1901.56455	0.23387
1899.63599	0.23327
1897.70742	0.23280
1895.77886	0.23244
1893.85029	0.23212
1891.92173	0.23174
1889.99316	0.23145
1888.06460	0.23124
1886.13604	0.23106
1884.20747	0.23089
1882.27891	0.23073
1880.35034	0.23067
1878.42178	0.23067
1876.49321	0.23064
1874.56465	0.23053
1872.63608	0.23045
1870.70752	0.23046
1868.77896	0.23072
1866.85039	0.23097
1864.92183	0.23099
1862.99326	0.23107
1861.06470	0.23130
1859.13613	0.23164
1857.20757	0.23202
1855.27900	0.23250
1853.35044	0.23293
1851.42187	0.23338
1849.49331	0.23393
1847.56475	0.23460
1845.63618	0.23533
1843.70762	0.23620
1841.77905	0.23701
1839.85049	0.23751
1837.92192	0.23819
1835.99336	0.23908
1834.06479	0.24011
1832.13623	0.24113
1830.20767	0.24235
1828.27910	0.24369
1826.35054	0.24488
1824.42197	0.24626
1822.49341	0.24762
1820.56484	0.24888
1818.63628	0.25010
1816.70771	0.25150
1814.77915	0.25298
1812.85059	0.25460
1810.92202	0.25658
1808.99346	0.25870
1807.06489	0.26073
1805.13633	0.26259
1803.20776	0.26462
1801.27920	0.26701
1799.35063	0.26980
1797.42207	0.27230
1795.49351	0.27456
1793.56494	0.27713
1791.63638	0.28055
1789.70781	0.28400
1787.77925	0.28669
1785.85068	0.28983
1783.92212	0.29349
1781.99355	0.29733
1780.06499	0.30142
1778.13643	0.30566
1776.20786	0.30948
1774.27930	0.31351
1772.35073	0.31914
1770.42217	0.32542
1768.49360	0.33074
1766.56504	0.33590
1764.63647	0.34124
1762.70791	0.34701
1760.77935	0.35425
1758.85078	0.36107
1756.92222	0.36796
1754.99365	0.37570
1753.06509	0.38272
1751.13652	0.39065
1749.20796	0.40059
1747.27939	0.41083
1745.35083	0.42002
1743.42227	0.42963
1741.49370	0.44007
1739.56514	0.45234
1737.63657	0.46468
1735.70801	0.47533
1733.77944	0.49108
1731.85088	0.51031
1729.92231	0.52590
1727.99375	0.54157
1726.06519	0.55809
1724.13662	0.57604
1722.20806	0.59565
1720.27949	0.61356
1718.35093	0.63402
1716.42236	0.66497
1714.49380	0.69545
1712.56523	0.72027
1710.63667	0.74411
1708.70811	0.76956
1706.77954	0.79833
1704.85098	0.83311
1702.92241	0.86458
1700.99385	0.89563
1699.06528	0.94204
1697.13672	0.98543
1695.20815	1.03087
1693.27959	1.07554
1691.35103	1.11149
1689.42246	1.15272
1687.49390	1.19660
1685.56533	1.23924
1683.63677	1.30552
1681.70820	1.37553
1679.77964	1.42073
1677.85107	1.46313
1675.92251	1.51149
1673.99395	1.57220
1672.06538	1.62756
1670.13682	1.68259
1668.20825	1.75448
1666.27969	1.81370
1664.35112	1.86449
1662.42256	1.93014
1660.49399	2.00671
1658.56543	2.06650
1656.63687	2.11318
1654.70830	2.15441
1652.77974	2.21514
1650.85117	2.27297
1648.92261	2.29483
1646.99404	2.32038
1645.06548	2.34468
1643.13691	2.35829
1641.20835	2.36401
1639.27979	2.36978
1637.35122	2.37321
1635.42266	2.36903
1633.49409	2.35698
1631.56553	2.34069
1629.63696	2.32115
1627.70840	2.28954
1625.77983	2.25282
1623.85127	2.20729
1621.92271	2.15177
1619.99414	2.10272
1618.06558	2.05518
1616.13701	1.98567
1614.20845	1.91454
1612.27988	1.86194
1610.35132	1.80817
1608.42275	1.74984
1606.49419	1.69274
1604.56562	1.64060
1602.63706	1.59066
1600.70850	1.54241
1598.77993	1.49794
1596.85137	1.45580
1594.92280	1.41519
1592.99424	1.37683
1591.06567	1.34232
1589.13711	1.31055
1587.20854	1.28169
1585.27998	1.25552
1583.35142	1.23117
1581.42285	1.20926
1579.49429	1.19127
1577.56572	1.17586
1575.63716	1.15772
1573.70859	1.14238
1571.78003	1.13318
1569.85146	1.12471
1567.92290	1.11612
1565.99434	1.11065
1564.06577	1.10806
1562.13721	1.10699
1560.20864	1.10822
1558.28008	1.11648
1556.35151	1.12554
1554.42295	1.13060
1552.49438	1.13566
1550.56582	1.13881
1548.63726	1.13873
1546.70869	1.13467
1544.78013	1.12599
1542.85156	1.11288
1540.92300	1.09251
1538.99443	1.06077
1537.06587	1.03749
1535.13730	1.02087
1533.20874	0.99795
1531.28018	0.97355
1529.35161	0.95618
1527.42305	0.93961
1525.49448	0.92197
1523.56592	0.90710
1521.63735	0.89377
1519.70879	0.88095
1517.78022	0.86994
1515.85166	0.85666
1513.92310	0.84255
1511.99453	0.83003
1510.06597	0.81843
1508.13740	0.80680
1506.20884	0.78909
1504.28027	0.77466
1502.35171	0.76701
1500.42314	0.76019
1498.49458	0.75258
1496.56602	0.74362
1494.63745	0.73487
1492.70889	0.72802
1490.78032	0.72176
1488.85176	0.71468
1486.92319	0.70850
1484.99463	0.70394
1483.06606	0.70038
1481.13750	0.69740
1479.20894	0.69529
1477.28037	0.69443
1475.35181	0.69452
1473.42324	0.69518
1471.49468	0.69560
1469.56611	0.69489
1467.63755	0.69339
1465.70898	0.69205
1463.78042	0.69145
1461.85186	0.69132
1459.92329	0.69145
1457.99473	0.69218
1456.06616	0.69311
1454.13760	0.69211
1452.20903	0.68998
1450.28047	0.68746
1448.35190	0.68476
1446.42334	0.68202
1444.49478	0.67946
1442.56621	0.67692
1440.63765	0.67418
1438.70908	0.67113
1436.78052	0.66721
1434.85195	0.66297
1432.92339	0.65981
1430.99482	0.65765
1429.06626	0.65657
1427.13770	0.65664
1425.20913	0.65757
1423.28057	0.65891
1421.35200	0.65989
1419.42344	0.66061
1417.49487	0.66111
1415.56631	0.66074
1413.63774	0.66027
1411.70918	0.66050
1409.78062	0.66176
1407.85205	0.66383
1405.92349	0.66635
1403.99492	0.66865
1402.06636	0.66966
1400.13779	0.66929
1398.20923	0.66774
1396.28066	0.66499
1394.35210	0.66077
1392.42354	0.65579
1390.49497	0.65119
1388.56641	0.64654
1386.63784	0.64097
1384.70928	0.63498
1382.78071	0.62934
1380.85215	0.62408
1378.92358	0.61962
1376.99502	0.61636
1375.06646	0.61428
1373.13789	0.61300
1371.20933	0.61202
1369.28076	0.61118
1367.35220	0.61005
1365.42363	0.60838
1363.49507	0.60637
1361.56650	0.60453
1359.63794	0.60305
1357.70937	0.60173
1355.78081	0.60044
1353.85225	0.59923
1351.92368	0.59830
1349.99512	0.59758
1348.06655	0.59682
1346.13799	0.59595
1344.20942	0.59513
1342.28086	0.59437
1340.35229	0.59365
1338.42373	0.59301
1336.49517	0.59262
1334.56660	0.59253
1332.63804	0.59256
1330.70947	0.59276
1328.78091	0.59332
1326.85234	0.59418
1324.92378	0.59524
1322.99521	0.59650
1321.06665	0.59773
1319.13809	0.59874
1317.20952	0.59943
1315.28096	0.59975
1313.35239	0.59960
1311.42383	0.59901
1309.49526	0.59825
1307.56670	0.59763
1305.63813	0.59733
1303.70957	0.59705
1301.78101	0.59643
1299.85244	0.59550
1297.92388	0.59436
1295.99531	0.59310
1294.06675	0.59186
1292.13818	0.59053
1290.20962	0.58906
1288.28105	0.58760
1286.35249	0.58614
1284.42393	0.58465
1282.49536	0.58314
1280.56680	0.58157
1278.63823	0.57999
1276.70967	0.57860
1274.78110	0.57743
1272.85254	0.57642
1270.92397	0.57561
1268.99541	0.57489
1267.06685	0.57406
1265.13828	0.57309
1263.20972	0.57211
1261.28115	0.57122
1259.35259	0.57042
1257.42402	0.56964
1255.49546	0.56906
1253.56689	0.56893
1251.63833	0.56903
1249.70977	0.56908
1247.78120	0.56913
1245.85264	0.56903
1243.92407	0.56846
1241.99551	0.56737
1240.06694	0.56582
1238.13838	0.56389
1236.20981	0.56156
1234.28125	0.55893
1232.35269	0.55631
1230.42412	0.55380
1228.49556	0.55140
1226.56699	0.54903
1224.63843	0.54666
1222.70986	0.54449
1220.78130	0.54266
1218.85273	0.54098
1216.92417	0.53935
1214.99561	0.53808
1213.06704	0.53725
1211.13848	0.53657
1209.20991	0.53593
1207.28135	0.53524
1205.35278	0.53437
1203.42422	0.53339
1201.49565	0.53233
1199.56709	0.53121
1197.63853	0.53018
1195.70996	0.52934
1193.78140	0.52865
1191.85283	0.52807
1189.92427	0.52761
1187.99570	0.52731
1186.06714	0.52718
1184.13857	0.52726
1182.21001	0.52766
1180.28145	0.52854
1178.35288	0.52997
1176.42432	0.53161
1174.49575	0.53300
1172.56719	0.53400
1170.63862	0.53457
1168.71006	0.53476
1166.78149	0.53477
1164.85293	0.53488
1162.92437	0.53506
1160.99580	0.53505
1159.06724	0.53479
1157.13867	0.53437
1155.21011	0.53373
1153.28154	0.53262
1151.35298	0.53088
1149.42441	0.52868
1147.49585	0.52617
1145.56729	0.52338
1143.63872	0.52055
1141.71016	0.51812
1139.78159	0.51646
1137.85303	0.51545
1135.92446	0.51477
1133.99590	0.51446
1132.06733	0.51463
1130.13877	0.51498
1128.21021	0.51521
1126.28164	0.51525
1124.35308	0.51522
1122.42451	0.51511
1120.49595	0.51506
1118.56738	0.51548
1116.63882	0.51635
1114.71025	0.51724
1112.78169	0.51802
1110.85312	0.51879
1108.92456	0.51959
1106.99600	0.52043
1105.06743	0.52145
1103.13887	0.52266
1101.21030	0.52374
1099.28174	0.52466
1097.35317	0.52615
1095.42461	0.52877
1093.49604	0.53246
1091.56748	0.53729
1089.63892	0.54363
1087.71035	0.55137
1085.78179	0.55992
1083.85322	0.56864
1081.92466	0.57642
1079.99609	0.58199
1078.06753	0.58442
1076.13896	0.58350
1074.21040	0.57984
1072.28184	0.57419
1070.35327	0.56738
1068.42471	0.56028
1066.49614	0.55342
1064.56758	0.54697
1062.63901	0.54110
1060.71045	0.53605
1058.78188	0.53179
1056.85332	0.52794
1054.92476	0.52427
1052.99619	0.52092
1051.06763	0.51815
1049.13906	0.51624
1047.21050	0.51532
1045.28193	0.51496
1043.35337	0.51479
1041.42480	0.51482
1039.49624	0.51498
1037.56768	0.51499
1035.63911	0.51475
1033.71055	0.51425
1031.78198	0.51323
1029.85342	0.51136
1027.92485	0.50900
1025.99629	0.50685
1024.06772	0.50516
1022.13916	0.50400
1020.21060	0.50342
1018.28203	0.50317
1016.35347	0.50283
1014.42490	0.50231
1012.49634	0.50168
1010.56777	0.50099
1008.63921	0.50059
1006.71064	0.50073
1004.78208	0.50140
1002.85352	0.50286
1000.92495	0.50532
998.99639	0.50866
997.06782	0.51285
995.13926	0.51752
993.21069	0.52187
991.28213	0.52529
989.35356	0.52742
987.42500	0.52806
985.49644	0.52771
983.56787	0.52718
981.63931	0.52702
979.71074	0.52757
977.78218	0.52877
975.85361	0.53027
973.92505	0.53210
971.99648	0.53456
970.06792	0.53766
968.13936	0.54111
966.21079	0.54473
964.28223	0.54866
962.35366	0.55314
960.42510	0.55805
958.49653	0.56328
956.56797	0.56913
954.63940	0.57551
952.71084	0.58161
950.78228	0.58737
948.85371	0.59362
946.92515	0.60021
944.99658	0.60652
943.06802	0.61279
941.13945	0.61918
939.21089	0.62521
937.28232	0.63072
935.35376	0.63608
933.42520	0.64160
931.49663	0.64735
929.56807	0.65316
927.63950	0.65918
925.71094	0.66567
923.78237	0.67184
921.85381	0.67737
919.92524	0.68327
917.99668	0.68987
916.06812	0.69687
914.13955	0.70416
912.21099	0.71207
910.28242	0.72041
908.35386	0.72799
906.42529	0.73532
904.49673	0.74397
902.56816	0.75337
900.63960	0.76276
898.71104	0.77290
896.78247	0.78325
894.85391	0.79315
892.92534	0.80336
890.99678	0.81301
889.06821	0.82173
887.13965	0.83145
885.21108	0.84360
883.28252	0.85694
881.35396	0.86873
879.42539	0.87884
877.49683	0.88971
875.56826	0.90132
873.63970	0.91232
871.71113	0.92427
869.78257	0.93617
867.85400	0.94575
865.92544	0.95563
863.99687	0.96747
862.06831	0.98027
860.13975	0.99291
858.21118	1.00472
856.28262	1.01533
854.35405	1.02601
852.42549	1.03919
850.49692	1.05290
848.56836	1.06439
846.63979	1.07602
844.71123	1.08892
842.78267	1.10020
840.85410	1.10989
838.92554	1.11960
836.99697	1.12970
835.06841	1.14081
833.13984	1.15271
831.21128	1.16484
829.28271	1.17606
827.35415	1.18760
825.42559	1.20322
823.49702	1.22092
821.56846	1.23268
819.63989	1.23707
817.71133	1.24130
815.78276	1.24967
813.85420	1.26051
811.92563	1.27516
809.99707	1.29846
808.06851	1.33024
806.13994	1.36457
804.21138	1.38524
802.28281	1.39000
800.35425	1.39609
798.42568	1.41637
796.49712	1.44364
794.56855	1.44219
792.63999	1.43119
790.71143	1.43587
788.78286	1.41380
786.85430	1.38097
784.92573	1.37273
782.99717	1.37134
781.06860	1.40546
779.14004	1.46855
777.21147	1.50393
775.28291	1.55665
773.35435	1.61422
771.42578	1.53002
769.49722	1.42846
767.56865	1.40190
765.64009	1.36284
763.71152	1.28535
761.78296	1.27084
759.85439	1.25934
757.92583	1.16695
755.99727	1.11385
754.06870	1.12300
752.14014	1.14635
750.21157	1.17381
748.28301	1.17816
746.35444	1.10826
744.42588	1.03191
742.49731	1.04697
740.56875	1.07936
738.64019	0.90452
736.71162	0.69920
734.78306	0.59167
732.85449	0.55660
730.92593	0.53469
728.99736	0.46220
727.06880	0.37194
725.14023	0.33433
723.21167	0.35420
721.28311	0.38686
719.35454	0.30443
717.42598	0.13599
715.49741	0.05411
713.56885	0.13420
711.64028	0.26158
709.71172	0.29799
707.78315	0.25835
705.85459	0.20708
703.92603	0.15145
701.99746	0.14423
700.06890	0.18625
698.14033	0.21341
696.21177	0.19615
694.28320	0.16672
692.35464	0.15710
690.42607	0.20176
688.49751	0.25143
686.56895	0.22334
684.64038	0.20735
682.71182	0.27325
680.78325	0.32748
678.85469	0.27947
676.92612	0.29015
674.99756	0.42332
673.06899	0.57924
671.14043	0.49982
669.21187	0.34407
667.28330	0.26695
665.35474	0.19341
663.42617	0.15181
661.49761	0.21039
659.56904	0.27108
657.64048	0.30009
655.71191	0.31800
653.78335	0.27795
651.85479	0.22770
649.92622	0.21901
647.99766	0.22731
646.06909	0.25952
644.14053	0.32496
642.21196	0.35407
640.28340	0.25758
638.35483	0.18488
636.42627	0.18358
634.49771	0.19298
632.56914	0.22503
630.64058	0.26712
628.71201	0.23163
626.78345	0.21710
624.85488	0.32909
622.92632	0.45490
620.99775	0.44446
619.06919	0.44861
617.14062	0.61744
615.21206	0.74681
613.28350	0.40552
611.35493	0.20123
609.42637	0.15581
607.49780	0.24557
605.56924	0.29658
603.64067	0.27207
601.71211	0.24761
599.78354	0.19332
597.85498	0.13147
595.92642	0.14969
593.99785	0.20625
592.06929	0.24063
590.14072	0.21786
588.21216	0.16809
586.28359	0.18537
584.35503	0.32309
582.42646	0.43382
580.49790	0.33590
578.56934	0.20221
576.64077	0.13515
574.71221	0.15451
572.78364	0.17459
570.85508	0.15857
568.92651	0.14152
566.99795	0.12058
565.06938	0.11090
563.14082	0.13247
561.21226	0.14610
559.28369	0.14062
557.35513	0.12535
555.42656	0.12236
553.49800	0.14193
551.56943	0.16271
549.64087	0.16988
547.71230	0.16487
545.78374	0.14333
543.85518	0.12256
541.92661	0.15212
539.99805	0.22169
538.06948	0.27168
536.14092	0.29972
534.21235	0.30399
532.28379	0.30712
530.35522	0.30354
528.42666	0.25633
526.49810	0.21722
524.56953	0.20873
522.64097	0.18270
520.71240	0.13180
518.78384	0.11080
516.85527	0.15324
514.92671	0.19622
512.99814	0.21173
511.06958	0.22154
509.14102	0.22317
507.21245	0.24924
505.28389	0.28136
503.35532	0.26923
501.42676	0.27363
499.49819	0.30774
