3997.91411	0.06879
3995.98555	0.06907
3994.05698	0.06980
3992.12842	0.07027
3990.19985	0.07058
3988.27129	0.07071
3986.34272	0.07069
3984.41416	0.07114
3982.48560	0.07182
3980.55703	0.07205
3978.62847	0.07200
3976.69990	0.07229
3974.77134	0.07282
3972.84277	0.07321
3970.91421	0.07349
3968.98564	0.07336
3967.05708	0.07270
3965.12852	0.07221
3963.19995	0.07269
3961.27139	0.07388
3959.34282	0.07455
3957.41426	0.07435
3955.48569	0.07402
3953.55713	0.07416
3951.62856	0.07488
3949.70000	0.07581
3947.77144	0.07641
3945.84287	0.07641
3943.91431	0.07673
3941.98574	0.07726
3940.05718	0.07640
3938.12861	0.07486
3936.20005	0.07422
3934.27148	0.07502
3932.34292	0.07694
3930.41436	0.07801
3928.48579	0.07722
3926.55723	0.07648
3924.62866	0.07691
3922.70010	0.07702
3920.77153	0.07654
3918.84297	0.07715
3916.91440	0.07814
3914.98584	0.07730
3913.05728	0.07517
3911.12871	0.07373
3909.20015	0.07356
3907.27158	0.07488
3905.34302	0.07817
3903.41445	0.08214
3901.48589	0.08390
3899.55732	0.08331
3897.62876	0.08101
3895.70020	0.07811
3893.77163	0.07729
3891.84307	0.07915
3889.91450	0.08036
3887.98594	0.07918
3886.05737	0.07904
3884.12881	0.08063
3882.20024	0.08184
3880.27168	0.08253
3878.34312	0.08126
3876.41455	0.07916
3874.48599	0.07966
3872.55742	0.08197
3870.62886	0.08437
3868.70029	0.08575
3866.77173	0.08480
3864.84316	0.08456
3862.91460	0.08550
3860.98604	0.08416
3859.05747	0.08205
3857.12891	0.08234
3855.20034	0.08592
3853.27178	0.09256
3851.34321	0.09493
3849.41465	0.08963
3847.48608	0.08502
3845.55752	0.08389
3843.62896	0.08613
3841.70039	0.08993
3839.77183	0.09375
3837.84326	0.09673
3835.91470	0.09660
3833.98613	0.09420
3832.05757	0.09227
3830.12900	0.09109
3828.20044	0.09063
3826.27187	0.09155
3824.34331	0.09330
3822.41475	0.09649
3820.48618	0.10181
3818.55762	0.10348
3816.62905	0.10136
3814.70049	0.09943
3812.77192	0.09686
3810.84336	0.09494
3808.91479	0.09572
3806.98623	0.09950
3805.05767	0.10331
3803.12910	0.10571
3801.20054	0.10941
3799.27197	0.11161
3797.34341	0.11048
3795.41484	0.10923
3793.48628	0.10750
3791.55771	0.10595
3789.62915	0.10593
3787.70059	0.10734
3785.77202	0.11004
3783.84346	0.11281
3781.91489	0.11436
3779.98633	0.11636
3778.05776	0.11873
3776.12920	0.11882
3774.20063	0.11838
3772.27207	0.12022
3770.34351	0.12453
3768.41494	0.12882
3766.48638	0.13085
3764.55781	0.13201
3762.62925	0.13326
3760.70068	0.13593
3758.77212	0.14045
3756.84355	0.14370
3754.91499	0.14552
3752.98643	0.14988
3751.05786	0.15848
3749.12930	0.16616
3747.20073	0.16723
3745.27217	0.16760
3743.34360	0.17068
3741.41504	0.17352
3739.48647	0.17627
3737.55791	0.18196
3735.62935	0.19187
3733.70078	0.20193
3731.77222	0.20530
3729.84365	0.20551
3727.91509	0.20786
3725.98652	0.21353
3724.05796	0.22056
3722.12939	0.22685
3720.20083	0.23198
3718.27227	0.23573
3716.34370	0.23988
3714.41514	0.24671
3712.48657	0.25895
3710.55801	0.27737
3708.62944	0.29289
3706.70088	0.30154
3704.77231	0.31025
3702.84375	0.32305
3700.91519	0.34054
3698.98662	0.35884
3697.05806	0.37587
3695.12949	0.39442
3693.20093	0.41523
3691.27236	0.43939
3689.34380	0.46975
3687.41523	0.50291
3685.48667	0.52963
3683.55811	0.55316
3681.62954	0.58006
3679.70098	0.61192
3677.77241	0.64716
3675.84385	0.69020
3673.91528	0.74520
3671.98672	0.78715
3670.05815	0.82505
3668.12959	0.87720
3666.20103	0.92249
3664.27246	0.96041
3662.34390	1.00323
3660.41533	1.05082
3658.48677	1.09831
3656.55820	1.14885
3654.62964	1.20462
3652.70107	1.25217
3650.77251	1.29619
3648.84395	1.35759
3646.91538	1.42753
3644.98682	1.47396
3643.05825	1.50964
3641.12969	1.54830
3639.20112	1.59178
3637.27256	1.63641
3635.34399	1.68103
3633.41543	1.72590
3631.48687	1.76794
3629.55830	1.81122
3627.62974	1.86717
3625.70117	1.91653
3623.77261	1.94842
3621.84404	1.98051
3619.91548	2.01997
3617.98691	2.06834
3616.05835	2.11230
3614.12979	2.14678
3612.20122	2.18321
3610.27266	2.22097
3608.34409	2.26105
3606.41553	2.30436
3604.48696	2.34294
3602.55840	2.37728
3600.62983	2.41566
3598.70127	2.45678
3596.77271	2.49634
3594.84414	2.53737
3592.91558	2.57876
3590.98701	2.61674
3589.05845	2.65497
3587.12988	2.70256
3585.20132	2.74970
3583.27275	2.78452
3581.34419	2.81829
3579.41562	2.85817
3577.48706	2.90158
3575.55850	2.94458
3573.62993	2.98711
3571.70137	3.02810
3569.77280	3.06855
3567.84424	3.11394
3565.91567	3.16929
3563.98711	3.21879
3562.05854	3.25526
3560.12998	3.29212
3558.20142	3.33458
3556.27285	3.38008
3554.34429	3.42441
3552.41572	3.46898
3550.48716	3.51526
3548.55859	3.56224
3546.63003	3.60984
3544.70146	3.65889
3542.77290	3.70841
3540.84434	3.75554
3538.91577	3.79942
3536.98721	3.84267
3535.05864	3.89036
3533.13008	3.93937
3531.20151	3.98599
3529.27295	4.03309
3527.34438	4.08360
3525.41582	4.13303
3523.48726	4.17782
3521.55869	4.22615
3519.63013	4.27995
3517.70156	4.33073
3515.77300	4.37317
3513.84443	4.41307
3511.91587	4.45919
3509.98730	4.51116
3508.05874	4.56211
3506.13018	4.60889
3504.20161	4.65558
3502.27305	4.70579
3500.34448	4.75627
3498.41592	4.80385
3496.48735	4.85065
3494.55879	4.89706
3492.63022	4.94305
3490.70166	4.99092
3488.77310	5.04152
3486.84453	5.09185
3484.91597	5.13956
3482.98740	5.18908
3481.05884	5.24146
3479.13027	5.29217
3477.20171	5.34988
3475.27314	5.41291
3473.34458	5.46028
3471.41602	5.49160
3469.48745	5.52570
3467.55889	5.57082
3465.63032	5.62169
3463.70176	5.67261
3461.77319	5.72041
3459.84463	5.76920
3457.91606	5.81608
3455.98750	5.85712
3454.05894	5.90673
3452.13037	5.97317
3450.20181	6.04475
3448.27324	6.10347
3446.34468	6.14994
3444.41611	6.19223
3442.48755	6.23381
3440.55898	6.27756
3438.63042	6.31763
3436.70186	6.35164
3434.77329	6.40015
3432.84473	6.46889
3430.91616	6.53358
3428.98760	6.58436
3427.05903	6.62730
3425.13047	6.67362
3423.20190	6.71913
3421.27334	6.76296
3419.34478	6.80710
3417.41621	6.85651
3415.48765	6.91342
3413.55908	6.95922
3411.63052	7.00777
3409.70195	7.06515
3407.77339	7.10995
3405.84482	7.12846
3403.91626	7.14672
3401.98770	7.20620
3400.05913	7.29637
3398.13057	7.35837
3396.20200	7.39234
3394.27344	7.44929
3392.34487	7.48349
3390.41631	7.47899
3388.48774	7.50407
3386.55918	7.55780
3384.63062	7.58064
3382.70205	7.57945
3380.77349	7.57226
3378.84492	7.57867
3376.91636	7.65699
3374.98779	7.76018
3373.05923	7.81503
3371.13066	7.81380
3369.20210	7.75979
3367.27354	7.69287
3365.34497	7.70508
3363.41641	7.79797
3361.48784	7.87065
3359.55928	7.89984
3357.63071	7.92011
3355.70215	7.95985
3353.77358	8.00492
3351.84502	8.05028
3349.91646	8.08578
3347.98789	8.11322
3346.05933	8.17157
3344.13076	8.21712
3342.20220	8.16726
3340.27363	8.05361
3338.34507	7.96648
3336.41650	7.92538
3334.48794	7.95579
3332.55937	8.02225
3330.63081	8.07139
3328.70225	8.12566
3326.77368	8.14467
3324.84512	8.09449
3322.91655	8.07110
3320.98799	8.13656
3319.05942	8.19060
3317.13086	8.20036
3315.20229	8.20615
3313.27373	8.18137
3311.34517	8.14489
3309.41660	8.16130
3307.48804	8.22120
3305.55947	8.27773
3303.63091	8.35823
3301.70234	8.41432
3299.77378	8.39995
3297.84521	8.38945
3295.91665	8.36124
3293.98809	8.25559
3292.05952	8.18292
3290.13096	8.20752
3288.20239	8.21866
3286.27383	8.22135
3284.34526	8.27893
3282.41670	8.27096
3280.48813	8.20796
3278.55957	8.27340
3276.63101	8.40675
3274.70244	8.45128
3272.77388	8.46256
3270.84531	8.48273
3268.91675	8.45029
3266.98818	8.35860
3265.05962	8.26757
3263.13105	8.23600
3261.20249	8.27063
3259.27393	8.29792
3257.34536	8.28325
3255.41680	8.27264
3253.48823	8.31427
3251.55967	8.33450
3249.63110	8.23540
3247.70254	8.14183
3245.77397	8.18498
3243.84541	8.31980
3241.91685	8.36790
3239.98828	8.27513
3238.05972	8.19973
3236.13115	8.21575
3234.20259	8.21399
3232.27402	8.16323
3230.34546	8.17199
3228.41689	8.22227
3226.48833	8.25320
3224.55977	8.24602
3222.63120	8.16410
3220.70264	8.08321
3218.77407	8.05345
3216.84551	8.01809
3214.91694	8.03034
3212.98838	8.10886
3211.05981	8.14207
3209.13125	8.11118
3207.20269	8.04665
3205.27412	7.97249
3203.34556	7.93928
3201.41699	7.91161
3199.48843	7.81993
3197.55986	7.73490
3195.63130	7.69133
3193.70273	7.60935
3191.77417	7.50126
3189.84561	7.45072
3187.91704	7.45282
3185.98848	7.43598
3184.05991	7.39686
3182.13135	7.37306
3180.20278	7.34417
3178.27422	7.29289
3176.34565	7.24780
3174.41709	7.19502
3172.48853	7.11553
3170.55996	7.02875
3168.63140	6.94146
3166.70283	6.87249
3164.77427	6.83181
3162.84570	6.79631
3160.91714	6.74083
3158.98857	6.66670
3157.06001	6.59648
3155.13145	6.53140
3153.20288	6.45814
3151.27432	6.38830
3149.34575	6.32706
3147.41719	6.25328
3145.48862	6.17112
3143.56006	6.09543
3141.63149	6.01874
3139.70293	5.93957
3137.77437	5.86882
3135.84580	5.80622
3133.91724	5.73701
3131.98867	5.65556
3130.06011	5.57890
3128.13154	5.51566
3126.20298	5.45170
3124.27441	5.37601
3122.34585	5.29373
3120.41729	5.21707
3118.48872	5.14756
3116.56016	5.08353
3114.63159	5.02252
3112.70303	4.95366
3110.77446	4.87825
3108.84590	4.80719
3106.91733	4.74082
3104.98877	4.67433
3103.06021	4.60846
3101.13164	4.54266
3099.20308	4.47422
3097.27451	4.40539
3095.34595	4.33626
3093.41738	4.26598
3091.48882	4.19807
3089.56025	4.13371
3087.63169	4.07214
3085.70312	4.01124
3083.77456	3.94814
3081.84600	3.88635
3079.91743	3.82758
3077.98887	3.76820
3076.06030	3.70839
3074.13174	3.64909
3072.20317	3.58934
3070.27461	3.52909
3068.34604	3.46923
3066.41748	3.41183
3064.48892	3.35759
3062.56035	3.30357
3060.63179	3.24848
3058.70322	3.19376
3056.77466	3.13981
3054.84609	3.08725
3052.91753	3.03621
3050.98896	2.98572
3049.06040	2.93498
3047.13184	2.88443
3045.20327	2.83551
3043.27471	2.78775
3041.34614	2.74003
3039.41758	2.69320
3037.48901	2.64777
3035.56045	2.60258
3033.63188	2.55660
3031.70332	2.51085
3029.77476	2.46713
3027.84619	2.42502
3025.91763	2.38331
3023.98906	2.34135
3022.06050	2.29921
3020.13193	2.25818
3018.20337	2.21858
3016.27480	2.17949
3014.34624	2.14100
3012.41768	2.10336
3010.48911	2.06617
3008.56055	2.02945
3006.63198	1.99327
3004.70342	1.95767
3002.77485	1.92309
3000.84629	1.88938
2998.91772	1.85587
2996.98916	1.82267
2995.06060	1.78999
2993.13203	1.75758
2991.20347	1.72570
2989.27490	1.69493
2987.34634	1.66518
2985.41777	1.63557
2983.48921	1.60589
2981.56064	1.57679
2979.63208	1.54831
2977.70352	1.52031
2975.77495	1.49308
2973.84639	1.46651
2971.91782	1.44046
2969.98926	1.41476
2968.06069	1.38938
2966.13213	1.36467
2964.20356	1.34048
2962.27500	1.31648
2960.34644	1.29266
2958.41787	1.26885
2956.48931	1.24528
2954.56074	1.22223
2952.63218	1.19942
2950.70361	1.17675
2948.77505	1.15448
2946.84648	1.13303
2944.91792	1.11242
2942.98936	1.09196
2941.06079	1.07152
2939.13223	1.05141
2937.20366	1.03174
2935.27510	1.01272
2933.34653	0.99423
2931.41797	0.97575
2929.48940	0.95737
2927.56084	0.93971
2925.63228	0.92280
2923.70371	0.90600
2921.77515	0.88893
2919.84658	0.87253
2917.91802	0.85743
2915.98945	0.84260
2914.06089	0.82731
2912.13232	0.81197
2910.20376	0.79681
2908.27520	0.78204
2906.34663	0.76811
2904.41807	0.75495
2902.48950	0.74199
2900.56094	0.72919
2898.63237	0.71676
2896.70381	0.70462
2894.77524	0.69263
2892.84668	0.68057
2890.91812	0.66865
2888.98955	0.65725
2887.06099	0.64621
2885.13242	0.63543
2883.20386	0.62487
2881.27529	0.61440
2879.34673	0.60403
2877.41816	0.59389
2875.48960	0.58391
2873.56104	0.57411
2871.63247	0.56452
2869.70391	0.55485
2867.77534	0.54500
2865.84678	0.53510
2863.91821	0.52518
2861.98965	0.51533
2860.06108	0.50582
2858.13252	0.49680
2856.20396	0.48830
2854.27539	0.48028
2852.34683	0.47247
2850.41826	0.46477
2848.48970	0.45729
2846.56113	0.45002
2844.63257	0.44310
2842.70400	0.43656
2840.77544	0.43023
2838.84687	0.42410
2836.91831	0.41827
2834.98975	0.41262
2833.06118	0.40699
2831.13262	0.40129
2829.20405	0.39544
2827.27549	0.38950
2825.34692	0.38369
2823.41836	0.37810
2821.48979	0.37271
2819.56123	0.36740
2817.63267	0.36203
2815.70410	0.35667
2813.77554	0.35143
2811.84697	0.34631
2809.91841	0.34121
2807.98984	0.33613
2806.06128	0.33120
2804.13271	0.32652
2802.20415	0.32195
2800.27559	0.31745
2798.34702	0.31305
2796.41846	0.30859
2794.48989	0.30418
2792.56133	0.29995
2790.63276	0.29585
2788.70420	0.29184
2786.77563	0.28785
2784.84707	0.28381
2782.91851	0.27991
2780.98994	0.27621
2779.06138	0.27252
2777.13281	0.26886
2775.20425	0.26539
2773.27568	0.26200
2771.34712	0.25859
2769.41855	0.25519
2767.48999	0.25191
2765.56143	0.24877
2763.63286	0.24570
2761.70430	0.24266
2759.77573	0.23960
2757.84717	0.23659
2755.91860	0.23372
2753.99004	0.23094
2752.06147	0.22809
2750.13291	0.22514
2748.20435	0.22229
2746.27578	0.21973
2744.34722	0.21747
2742.41865	0.21539
2740.49009	0.21317
2738.56152	0.21072
2736.63296	0.20821
2734.70439	0.20571
2732.77583	0.20344
2730.84727	0.20163
2728.91870	0.19994
2726.99014	0.19797
2725.06157	0.19587
2723.13301	0.19384
2721.20444	0.19189
2719.27588	0.18998
2717.34731	0.18815
2715.41875	0.18642
2713.49019	0.18474
2711.56162	0.18304
2709.63306	0.18138
2707.70449	0.17982
2705.77593	0.17832
2703.84736	0.17675
2701.91880	0.17512
2699.99023	0.17359
2698.06167	0.17232
2696.13311	0.17117
2694.20454	0.16988
2692.27598	0.16846
2690.34741	0.16716
2688.41885	0.16612
2686.49028	0.16516
2684.56172	0.16405
2682.63315	0.16284
2680.70459	0.16174
2678.77603	0.16084
2676.84746	0.15999
2674.91890	0.15897
2672.99033	0.15777
2671.06177	0.15672
2669.13320	0.15593
2667.20464	0.15521
2665.27607	0.15433
2663.34751	0.15333
2661.41895	0.15250
2659.49038	0.15186
2657.56182	0.15125
2655.63325	0.15081
2653.70469	0.15049
2651.77612	0.14986
2649.84756	0.14901
2647.91899	0.14826
2645.99043	0.14774
2644.06187	0.14743
2642.13330	0.14704
2640.20474	0.14643
2638.27617	0.14592
2636.34761	0.14563
2634.41904	0.14533
2632.49048	0.14491
2630.56191	0.14446
2628.63335	0.14411
2626.70479	0.14387
2624.77622	0.14372
2622.84766	0.14369
2620.91909	0.14363
2618.99053	0.14341
2617.06196	0.14314
2615.13340	0.14288
2613.20483	0.14270
2611.27627	0.14271
2609.34771	0.14278
2607.41914	0.14283
2605.49058	0.14288
2603.56201	0.14292
2601.63345	0.14288
2599.70488	0.14276
2597.77632	0.14282
2595.84775	0.14311
2593.91919	0.14335
2591.99062	0.14345
2590.06206	0.14349
2588.13350	0.14366
2586.20493	0.14399
2584.27637	0.14429
2582.34780	0.14452
2580.41924	0.14483
2578.49067	0.14520
2576.56211	0.14554
2574.63354	0.14589
2572.70498	0.14626
2570.77642	0.14661
2568.84785	0.14690
2566.91929	0.14724
2564.99072	0.14772
2563.06216	0.14826
2561.13359	0.14871
2559.20503	0.14909
2557.27646	0.14956
2555.34790	0.15019
2553.41934	0.15083
2551.49077	0.15132
2549.56221	0.15176
2547.63364	0.15233
2545.70508	0.15304
2543.77651	0.15380
2541.84795	0.15454
2539.91938	0.15516
2537.99082	0.15573
2536.06226	0.15640
2534.13369	0.15708
2532.20513	0.15770
2530.27656	0.15841
2528.34800	0.15920
2526.41943	0.15995
2524.49087	0.16065
2522.56230	0.16133
2520.63374	0.16211
2518.70518	0.16308
2516.77661	0.16410
2514.84805	0.16496
2512.91948	0.16570
2510.99092	0.16643
2509.06235	0.16717
2507.13379	0.16793
2505.20522	0.16873
2503.27666	0.16958
2501.34810	0.17056
2499.41953	0.17146
2497.49097	0.17225
2495.56240	0.17321
2493.63384	0.17423
2491.70527	0.17505
2489.77671	0.17576
2487.84814	0.17656
2485.91958	0.17742
2483.99102	0.17831
2482.06245	0.17926
2480.13389	0.18030
2478.20532	0.18135
2476.27676	0.18228
2474.34819	0.18316
2472.41963	0.18415
2470.49106	0.18514
2468.56250	0.18608
2466.63394	0.18704
2464.70537	0.18795
2462.77681	0.18875
2460.84824	0.18966
2458.91968	0.19078
2456.99111	0.19181
2455.06255	0.19269
2453.13398	0.19369
2451.20542	0.19475
2449.27686	0.19579
2447.34829	0.19688
2445.41973	0.19790
2443.49116	0.19882
2441.56260	0.19981
2439.63403	0.20095
2437.70547	0.20207
2435.77690	0.20305
2433.84834	0.20408
2431.91978	0.20529
2429.99121	0.20644
2428.06265	0.20746
2426.13408	0.20849
2424.20552	0.20952
2422.27695	0.21058
2420.34839	0.21176
2418.41982	0.21287
2416.49126	0.21391
2414.56270	0.21504
2412.63413	0.21621
2410.70557	0.21734
2408.77700	0.21848
2406.84844	0.21962
2404.91987	0.22085
2402.99131	0.22216
2401.06274	0.22344
2399.13418	0.22467
2397.20562	0.22582
2395.27705	0.22695
2393.34849	0.22810
2391.41992	0.22937
2389.49136	0.23102
2387.56279	0.23338
2385.63423	0.23681
2383.70566	0.24180
2381.77710	0.24852
2379.84854	0.25657
2377.91997	0.26559
2375.99141	0.27600
2374.06284	0.28858
2372.13428	0.30313
2370.20571	0.31895
2368.27715	0.33535
2366.34858	0.35084
2364.42002	0.36389
2362.49146	0.37442
2360.56289	0.38187
2358.63433	0.38451
2356.70576	0.37987
2354.77720	0.36757
2352.84863	0.35131
2350.92007	0.33535
2348.99150	0.32568
2347.06294	0.32560
2345.13437	0.33598
2343.20581	0.35198
2341.27725	0.36149
2339.34868	0.36262
2337.42012	0.36137
2335.49155	0.36026
2333.56299	0.35885
2331.63442	0.35786
2329.70586	0.35779
2327.77729	0.35722
2325.84873	0.35430
2323.92017	0.34947
2321.99160	0.34464
2320.06304	0.34042
2318.13447	0.33627
2316.20591	0.33250
2314.27734	0.32993
2312.34878	0.32846
2310.42021	0.32739
2308.49165	0.32601
2306.56309	0.32398
2304.63452	0.32171
2302.70596	0.32018
2300.77739	0.31966
2298.84883	0.31964
2296.92026	0.31979
2294.99170	0.31996
2293.06313	0.32013
2291.13457	0.32039
2289.20601	0.32065
2287.27744	0.32082
2285.34888	0.32107
2283.42031	0.32179
2281.49175	0.32339
2279.56318	0.32573
2277.63462	0.32819
2275.70605	0.33065
2273.77749	0.33304
2271.84893	0.33513
2269.92036	0.33696
2267.99180	0.33878
2266.06323	0.34079
2264.13467	0.34294
2262.20610	0.34493
2260.27754	0.34669
2258.34897	0.34841
2256.42041	0.35020
2254.49185	0.35203
2252.56328	0.35383
2250.63472	0.35558
2248.70615	0.35737
2246.77759	0.35941
2244.84902	0.36165
2242.92046	0.36373
2240.99189	0.36570
2239.06333	0.36784
2237.13477	0.37005
2235.20620	0.37223
2233.27764	0.37439
2231.34907	0.37652
2229.42051	0.37863
2227.49194	0.38076
2225.56338	0.38304
2223.63481	0.38531
2221.70625	0.38746
2219.77769	0.38967
2217.84912	0.39190
2215.92056	0.39398
2213.99199	0.39600
2212.06343	0.39801
2210.13486	0.40008
2208.20630	0.40227
2206.27773	0.40445
2204.34917	0.40652
2202.42061	0.40854
2200.49204	0.41052
2198.56348	0.41248
2196.63491	0.41442
2194.70635	0.41635
2192.77778	0.41827
2190.84922	0.42016
2188.92065	0.42212
2186.99209	0.42418
2185.06353	0.42608
2183.13496	0.42769
2181.20640	0.42910
2179.27783	0.43061
2177.34927	0.43236
2175.42070	0.43411
2173.49214	0.43566
2171.56357	0.43709
2169.63501	0.43846
2167.70645	0.43976
2165.77788	0.44099
2163.84932	0.44222
2161.92075	0.44347
2159.99219	0.44464
2158.06362	0.44571
2156.13506	0.44671
2154.20649	0.44761
2152.27793	0.44841
2150.34937	0.44915
2148.42080	0.44986
2146.49224	0.45050
2144.56367	0.45108
2142.63511	0.45171
2140.70654	0.45227
2138.77798	0.45250
2136.84941	0.45250
2134.92085	0.45250
2132.99229	0.45246
2131.06372	0.45234
2129.13516	0.45225
2127.20659	0.45222
2125.27803	0.45206
2123.34946	0.45167
2121.42090	0.45118
2119.49233	0.45059
2117.56377	0.45000
2115.63521	0.44941
2113.70664	0.44872
2111.77808	0.44791
2109.84951	0.44699
2107.92095	0.44598
2105.99238	0.44495
2104.06382	0.44389
2102.13525	0.44277
2100.20669	0.44161
2098.27812	0.44035
2096.34956	0.43892
2094.42100	0.43741
2092.49243	0.43598
2090.56387	0.43459
2088.63530	0.43304
2086.70674	0.43127
2084.77817	0.42937
2082.84961	0.42748
2080.92104	0.42567
2078.99248	0.42386
2077.06392	0.42191
2075.13535	0.41979
2073.20679	0.41755
2071.27822	0.41530
2069.34966	0.41320
2067.42109	0.41122
2065.49253	0.40915
2063.56396	0.40676
2061.63540	0.40418
2059.70684	0.40166
2057.77827	0.39919
2055.84971	0.39677
2053.92114	0.39435
2051.99258	0.39182
2050.06401	0.38925
2048.13545	0.38675
2046.20688	0.38417
2044.27832	0.38159
2042.34976	0.37908
2040.42119	0.37647
2038.49263	0.37374
2036.56406	0.37100
2034.63550	0.36827
2032.70693	0.36556
2030.77837	0.36283
2028.84980	0.36008
2026.92124	0.35739
2024.99268	0.35476
2023.06411	0.35212
2021.13555	0.34944
2019.20698	0.34682
2017.27842	0.34419
2015.34985	0.34130
2013.42129	0.33836
2011.49272	0.33560
2009.56416	0.33292
2007.63560	0.33028
2005.70703	0.32773
2003.77847	0.32516
2001.84990	0.32253
1999.92134	0.31994
1997.99277	0.31736
1996.06421	0.31482
1994.13564	0.31256
1992.20708	0.31045
1990.27852	0.30796
1988.34995	0.30523
1986.42139	0.30251
1984.49282	0.29991
1982.56426	0.29749
1980.63569	0.29517
1978.70713	0.29288
1976.77856	0.29064
1974.85000	0.28842
1972.92144	0.28626
1970.99287	0.28423
1969.06431	0.28249
1967.13574	0.28081
1965.20718	0.27870
1963.27861	0.27639
1961.35005	0.27427
1959.42148	0.27223
1957.49292	0.27029
1955.56436	0.26848
1953.63579	0.26677
1951.70723	0.26507
1949.77866	0.26347
1947.85010	0.26207
1945.92153	0.26088
1943.99297	0.25989
1942.06440	0.25874
1940.13584	0.25675
1938.20728	0.25449
1936.27871	0.25282
1934.35015	0.25162
1932.42158	0.25049
1930.49302	0.24932
1928.56445	0.24818
1926.63589	0.24711
1924.70732	0.24642
1922.77876	0.24597
1920.85020	0.24522
1918.92163	0.24430
1916.99307	0.24320
1915.06450	0.24170
1913.13594	0.24041
1911.20737	0.23982
1909.27881	0.23952
1907.35024	0.23888
1905.42168	0.23789
1903.49312	0.23704
1901.56455	0.23643
1899.63599	0.23598
1897.70742	0.23577
1895.77886	0.23568
1893.85029	0.23536
1891.92173	0.23497
1889.99316	0.23502
1888.06460	0.23482
1886.13604	0.23404
1884.20747	0.23340
1882.27891	0.23308
1880.35034	0.23295
1878.42178	0.23289
1876.49321	0.23284
1874.56465	0.23279
1872.63608	0.23313
1870.70752	0.23432
1868.77896	0.23613
1866.85039	0.23653
1864.92183	0.23523
1862.99326	0.23419
1861.06470	0.23409
1859.13613	0.23454
1857.20757	0.23489
1855.27900	0.23517
1853.35044	0.23558
1851.42187	0.23618
1849.49331	0.23708
1847.56475	0.23839
1845.63618	0.24011
1843.70762	0.24159
1841.77905	0.24157
1839.85049	0.24100
1837.92192	0.24147
1835.99336	0.24247
1834.06479	0.24336
1832.13623	0.24470
1830.20767	0.24709
1828.27910	0.24901
1826.35054	0.24969
1824.42197	0.25054
1822.49341	0.25125
1820.56484	0.25191
1818.63628	0.25311
1816.70771	0.25471
1814.77915	0.25627
1812.85059	0.25828
1810.92202	0.26088
1808.99346	0.26299
1807.06489	0.26446
1805.13633	0.26616
1803.20776	0.26879
1801.27920	0.27195
1799.35063	0.27488
1797.42207	0.27711
1795.49351	0.27956
1793.56494	0.28313
1791.63638	0.28735
1789.70781	0.28994
1787.77925	0.29137
1785.85068	0.29406
1783.92212	0.29787
1781.99355	0.30213
1780.06499	0.30652
1778.13643	0.31071
1776.20786	0.31487
1774.27930	0.32012
1772.35073	0.32733
1770.42217	0.33378
1768.49360	0.33784
1766.56504	0.34169
1764.63647	0.34641
1762.70791	0.35262
1760.77935	0.36058
1758.85078	0.36766
1756.92222	0.37469
1754.99365	0.38223
1753.06509	0.38940
1751.13652	0.39896
1749.20796	0.41088
1747.27939	0.42122
1745.35083	0.42954
1743.42227	0.43870
1741.49370	0.44919
1739.56514	0.46158
1737.63657	0.47396
1735.70801	0.48545
1733.77944	0.50293
1731.85088	0.52212
1729.92231	0.53622
1727.99375	0.55078
1726.06519	0.56696
1724.13662	0.58526
1722.20806	0.60539
1720.27949	0.62456
1718.35093	0.64787
1716.42236	0.68121
1714.49380	0.71058
1712.56523	0.73346
1710.63667	0.75630
1708.70811	0.78181
1706.77954	0.81159
1704.85098	0.84715
1702.92241	0.87844
1700.99385	0.90969
1699.06528	0.95636
1697.13672	0.99824
1695.20815	1.03937
1693.27959	1.07841
1691.35103	1.11060
1689.42246	1.14920
1687.49390	1.19005
1685.56533	1.22952
1683.63677	1.28976
1681.70820	1.35024
1679.77964	1.38844
1677.85107	1.42562
1675.92251	1.46916
1673.99395	1.52281
1672.06538	1.57011
1670.13682	1.61653
1668.20825	1.67541
1666.27969	1.72171
1664.35112	1.76055
1662.42256	1.80901
1660.49399	1.86269
1658.56543	1.90462
1656.63687	1.94018
1654.70830	1.97647
1652.77974	2.03604
1650.85117	2.08867
1648.92261	2.10793
1646.99404	2.13561
1645.06548	2.16570
1643.13691	2.18337
1641.20835	2.19528
1639.27979	2.20795
1637.35122	2.21735
1635.42266	2.22103
1633.49409	2.21662
1631.56553	2.20507
1629.63696	2.19113
1627.70840	2.16775
1625.77983	2.13906
1623.85127	2.10220
1621.92271	2.05464
1619.99414	2.01059
1618.06558	1.96927
1616.13701	1.91105
1614.20845	1.84956
1612.27988	1.80240
1610.35132	1.75394
1608.42275	1.70117
1606.49419	1.64865
1604.56562	1.59993
1602.63706	1.55269
1600.70850	1.50652
1598.77993	1.46371
1596.85137	1.42307
1594.92280	1.38344
1592.99424	1.34478
1591.06567	1.30915
1589.13711	1.27541
1587.20854	1.24312
1585.27998	1.21279
1583.35142	1.18445
1581.42285	1.15841
1579.49429	1.13624
1577.56572	1.11683
1575.63716	1.09182
1573.70859	1.06763
1571.78003	1.05202
1569.85146	1.03634
1567.92290	1.01724
1565.99434	1.00160
1564.06577	0.98919
1562.13721	0.97961
1560.20864	0.97326
1558.28008	0.96183
1556.35151	0.94735
1554.42295	0.93738
1552.49438	0.92825
1550.56582	0.91934
1548.63726	0.90990
1546.70869	0.90150
1544.78013	0.89454
1542.85156	0.88750
1540.92300	0.87756
1538.99443	0.85937
1537.06587	0.84419
1535.13730	0.83522
1533.20874	0.82504
1531.28018	0.81298
1529.35161	0.80391
1527.42305	0.79654
1525.49448	0.78931
1523.56592	0.78313
1521.63735	0.77700
1519.70879	0.76904
1517.78022	0.76147
1515.85166	0.75324
1513.92310	0.74470
1511.99453	0.73823
1510.06597	0.73405
1508.13740	0.73160
1506.20884	0.72466
1504.28027	0.71420
1502.35171	0.70786
1500.42314	0.70394
1498.49458	0.70087
1496.56602	0.69658
1494.63745	0.69111
1492.70889	0.68725
1490.78032	0.68543
1488.85176	0.68330
1486.92319	0.67903
1484.99463	0.67439
1483.06606	0.67096
1481.13750	0.66869
1479.20894	0.66705
1477.28037	0.66613
1475.35181	0.66586
1473.42324	0.66534
1471.49468	0.66253
1469.56611	0.65822
1467.63755	0.65508
1465.70898	0.65313
1463.78042	0.65089
1461.85186	0.64857
1459.92329	0.64785
1457.99473	0.64849
1456.06616	0.64665
1454.13760	0.64176
1452.20903	0.63769
1450.28047	0.63469
1448.35190	0.63224
1446.42334	0.62954
1444.49478	0.62674
1442.56621	0.62428
1440.63765	0.62226
1438.70908	0.62095
1436.78052	0.61977
1434.85195	0.61748
1432.92339	0.61494
1430.99482	0.61311
1429.06626	0.61151
1427.13770	0.61002
1425.20913	0.60912
1423.28057	0.60853
1421.35200	0.60805
1419.42344	0.60809
1417.49487	0.60714
1415.56631	0.60448
1413.63774	0.60221
1411.70918	0.60082
1409.78062	0.59983
1407.85205	0.59909
1405.92349	0.59884
1403.99492	0.59847
1402.06636	0.59751
1400.13779	0.59674
1398.20923	0.59610
1396.28066	0.59477
1394.35210	0.59232
1392.42354	0.58912
1390.49497	0.58648
1388.56641	0.58476
1386.63784	0.58295
1384.70928	0.58021
1382.78071	0.57755
1380.85215	0.57563
1378.92358	0.57422
1376.99502	0.57321
1375.06646	0.57252
1373.13789	0.57136
1371.20933	0.56981
1369.28076	0.56869
1367.35220	0.56768
1365.42363	0.56663
1363.49507	0.56605
1361.56650	0.56531
1359.63794	0.56377
1357.70937	0.56225
1355.78081	0.56113
1353.85225	0.56022
1351.92368	0.55932
1349.99512	0.55842
1348.06655	0.55759
1346.13799	0.55680
1344.20942	0.55610
1342.28086	0.55575
1340.35229	0.55577
1338.42373	0.55525
1336.49517	0.55379
1334.56660	0.55230
1332.63804	0.55138
1330.70947	0.55087
1328.78091	0.55044
1326.85234	0.55001
1324.92378	0.54962
1322.99521	0.54929
1321.06665	0.54910
1319.13809	0.54901
1317.20952	0.54861
1315.28096	0.54790
1313.35239	0.54717
1311.42383	0.54636
1309.49526	0.54552
1307.56670	0.54477
1305.63813	0.54396
1303.70957	0.54309
1301.78101	0.54241
1299.85244	0.54185
1297.92388	0.54118
1295.99531	0.54039
1294.06675	0.53950
1292.13818	0.53858
1290.20962	0.53780
1288.28105	0.53721
1286.35249	0.53659
1284.42393	0.53587
1282.49536	0.53518
1280.56680	0.53460
1278.63823	0.53401
1276.70967	0.53339
1274.78110	0.53280
1272.85254	0.53223
1270.92397	0.53171
1268.99541	0.53117
1267.06685	0.53061
1265.13828	0.53011
1263.20972	0.52946
1261.28115	0.52878
1259.35259	0.52839
1257.42402	0.52815
1255.49546	0.52793
1253.56689	0.52780
1251.63833	0.52766
1249.70977	0.52741
1247.78120	0.52713
1245.85264	0.52687
1243.92407	0.52654
1241.99551	0.52604
1240.06694	0.52538
1238.13838	0.52452
1236.20981	0.52356
1234.28125	0.52269
1232.35269	0.52184
1230.42412	0.52092
1228.49556	0.52000
1226.56699	0.51917
1224.63843	0.51838
1222.70986	0.51751
1220.78130	0.51658
1218.85273	0.51575
1216.92417	0.51510
1214.99561	0.51450
1213.06704	0.51386
1211.13848	0.51322
1209.20991	0.51255
1207.28135	0.51188
1205.35278	0.51132
1203.42422	0.51088
1201.49565	0.51034
1199.56709	0.50971
1197.63853	0.50916
1195.70996	0.50869
1193.78140	0.50823
1191.85283	0.50784
1189.92427	0.50752
1187.99570	0.50731
1186.06714	0.50717
1184.13857	0.50700
1182.21001	0.50704
1180.28145	0.50749
1178.35288	0.50816
1176.42432	0.50885
1174.49575	0.50954
1172.56719	0.51013
1170.63862	0.51049
1168.71006	0.51071
1166.78149	0.51090
1164.85293	0.51104
1162.92437	0.51121
1160.99580	0.51126
1159.06724	0.51096
1157.13867	0.51045
1155.21011	0.50969
1153.28154	0.50856
1151.35298	0.50710
1149.42441	0.50519
1147.49585	0.50281
1145.56729	0.50032
1143.63872	0.49800
1141.71016	0.49598
1139.78159	0.49409
1137.85303	0.49211
1135.92446	0.49009
1133.99590	0.48825
1132.06733	0.48677
1130.13877	0.48562
1128.21021	0.48465
1126.28164	0.48362
1124.35308	0.48257
1122.42451	0.48161
1120.49595	0.48060
1118.56738	0.47968
1116.63882	0.47906
1114.71025	0.47870
1112.78169	0.47870
1110.85312	0.47908
1108.92456	0.47954
1106.99600	0.48016
1105.06743	0.48130
1103.13887	0.48296
1101.21030	0.48489
1099.28174	0.48705
1097.35317	0.48968
1095.42461	0.49288
1093.49604	0.49647
1091.56748	0.50030
1089.63892	0.50456
1087.71035	0.50971
1085.78179	0.51593
1083.85322	0.52266
1081.92466	0.52900
1079.99609	0.53449
1078.06753	0.53854
1076.13896	0.53993
1074.21040	0.53798
1072.28184	0.53364
1070.35327	0.52811
1068.42471	0.52170
1066.49614	0.51491
1064.56758	0.50864
1062.63901	0.50327
1060.71045	0.49838
1058.78188	0.49380
1056.85332	0.48979
1054.92476	0.48634
1052.99619	0.48325
1051.06763	0.48062
1049.13906	0.47868
1047.21050	0.47710
1045.28193	0.47550
1043.35337	0.47407
1041.42480	0.47290
1039.49624	0.47180
1037.56768	0.47085
1035.63911	0.47034
1033.71055	0.47015
1031.78198	0.47014
1029.85342	0.47029
1027.92485	0.47042
1025.99629	0.47057
1024.06772	0.47095
1022.13916	0.47147
1020.21060	0.47209
1018.28203	0.47292
1016.35347	0.47394
1014.42490	0.47517
1012.49634	0.47645
1010.56777	0.47766
1008.63921	0.47912
1006.71064	0.48100
1004.78208	0.48318
1002.85352	0.48557
1000.92495	0.48819
998.99639	0.49120
997.06782	0.49469
995.13926	0.49848
993.21069	0.50237
991.28213	0.50586
989.35356	0.50837
987.42500	0.50982
985.49644	0.51069
983.56787	0.51160
981.63931	0.51277
979.71074	0.51416
977.78218	0.51595
975.85361	0.51819
973.92505	0.52086
971.99648	0.52400
970.06792	0.52742
968.13936	0.53099
966.21079	0.53485
964.28223	0.53925
962.35366	0.54421
960.42510	0.54929
958.49653	0.55434
956.56797	0.55969
954.63940	0.56545
952.71084	0.57162
950.78228	0.57802
948.85371	0.58429
946.92515	0.59052
944.99658	0.59674
943.06802	0.60288
941.13945	0.60909
939.21089	0.61510
937.28232	0.62066
935.35376	0.62584
933.42520	0.63091
931.49663	0.63622
929.56807	0.64195
927.63950	0.64804
925.71094	0.65429
923.78237	0.66048
921.85381	0.66669
919.92524	0.67311
917.99668	0.67980
916.06812	0.68700
914.13955	0.69479
912.21099	0.70238
910.28242	0.70976
908.35386	0.71799
906.42529	0.72726
904.49673	0.73649
902.56816	0.74496
900.63960	0.75324
898.71104	0.76214
896.78247	0.77216
894.85391	0.78317
892.92534	0.79409
890.99678	0.80362
889.06821	0.81224
887.13965	0.82233
885.21108	0.83459
883.28252	0.84717
881.35396	0.85898
879.42539	0.87006
877.49683	0.87959
875.56826	0.88896
873.63970	0.90083
871.71113	0.91373
869.78257	0.92515
867.85400	0.93558
865.92544	0.94609
863.99687	0.95720
862.06831	0.96914
860.13975	0.98088
858.21118	0.99173
856.28262	1.00144
854.35405	1.01039
852.42549	1.02090
850.49692	1.03419
848.56836	1.04850
846.63979	1.06127
844.71123	1.07160
842.78267	1.08207
840.85410	1.09526
838.92554	1.10779
836.99697	1.11710
835.06841	1.12591
833.13984	1.13528
831.21128	1.14510
829.28271	1.15700
827.35415	1.17386
825.42559	1.19166
823.49702	1.20224
821.56846	1.21288
819.63989	1.23012
817.71133	1.24332
815.78276	1.24943
813.85420	1.25844
811.92563	1.27489
809.99707	1.29402
808.06851	1.30724
806.13994	1.30844
804.21138	1.30448
802.28281	1.31291
800.35425	1.33685
798.42568	1.36145
796.49712	1.36096
794.56855	1.34606
792.63999	1.36661
790.71143	1.42620
788.78286	1.48675
786.85430	1.53625
784.92573	1.57753
782.99717	1.59627
781.06860	1.60003
779.14004	1.59846
777.21147	1.55476
775.28291	1.43349
773.35435	1.31666
771.42578	1.27926
769.49722	1.29031
767.56865	1.30915
765.64009	1.33072
763.71152	1.35373
761.78296	1.41228
759.85439	1.53968
757.92583	1.71196
755.99727	1.96448
754.06870	2.24028
752.14014	1.69217
750.21157	1.35677
748.28301	1.27361
746.35444	1.41562
744.42588	2.26210
742.49731	4.45498
740.56875	1.40731
738.64019	1.29940
736.71162	1.57597
734.78306	1.10845
732.85449	0.78438
730.92593	0.70850
728.99736	0.87835
727.06880	4.36241
725.14023	4.35084
723.21167	0.94201
721.28311	0.69789
719.35454	0.60675
717.42598	0.50907
715.49741	0.45737
713.56885	0.42108
711.64028	0.25300
709.71172	0.04139
707.78315	-0.41104
705.85459	-0.40992
703.92603	-0.59303
701.99746	-0.25067
700.06890	0.06063
698.14033	0.26759
696.21177	0.36981
694.28320	0.39775
692.35464	0.43766
690.42607	0.53475
688.49751	0.74474
686.56895	0.66390
684.64038	0.31755
682.71182	0.18291
680.78325	0.17965
678.85469	0.20730
676.92612	0.22878
674.99756	0.19642
673.06899	0.12077
671.14043	0.09867
669.21187	0.22097
667.28330	0.30467
665.35474	0.34191
663.42617	0.35645
661.49761	0.22804
659.56904	0.11556
657.64048	0.16720
655.71191	0.31587
653.78335	0.38640
651.85479	0.42738
649.92622	0.56023
647.99766	0.67093
646.06909	0.71311
644.14053	0.55010
642.21196	0.33515
640.28340	0.28981
638.35483	0.32505
636.42627	0.31325
634.49771	0.27877
632.56914	0.22707
630.64058	0.16847
628.71201	0.19482
626.78345	0.27390
624.85488	0.29958
622.92632	0.32546
620.99775	0.33844
619.06919	0.24200
617.14062	0.20494
615.21206	0.25407
613.28350	0.25644
611.35493	0.23469
609.42637	0.24971
607.49780	0.23141
605.56924	0.18098
603.64067	0.19856
601.71211	0.29292
599.78354	0.42417
597.85498	0.62867
595.92642	0.60721
593.99785	0.35859
592.06929	0.29769
590.14072	0.33242
588.21216	0.31090
586.28359	0.24267
584.35503	0.21608
582.42646	0.27426
580.49790	0.28239
578.56934	0.22811
576.64077	0.20759
574.71221	0.23625
572.78364	0.27563
570.85508	0.28971
568.92651	0.29818
566.99795	0.27287
565.06938	0.23848
563.14082	0.28810
561.21226	0.45546
559.28369	0.57516
557.35513	0.38487
555.42656	0.26120
553.49800	0.20900
551.56943	0.16792
549.64087	0.14173
547.71230	0.15227
545.78374	0.22708
543.85518	0.35518
541.92661	0.37587
539.99805	0.26667
538.06948	0.21394
536.14092	0.26752
534.21235	0.43986
532.28379	0.41679
530.35522	0.24213
528.42666	0.14270
526.49810	0.11646
524.56953	0.15237
522.64097	0.20030
520.71240	0.19924
518.78384	0.14432
516.85527	0.10182
514.92671	0.11015
512.99814	0.15592
511.06958	0.23338
509.14102	0.30297
507.21245	0.44182
505.28389	3.03170
503.35532	0.56254
501.42676	0.25705
499.49819	0.21386
