3997.91411	0.06704
3995.98555	0.06765
3994.05698	0.06836
3992.12842	0.06909
3990.19985	0.06961
3988.27129	0.07001
3986.34272	0.07028
3984.41416	0.07024
3982.48560	0.07013
3980.55703	0.07033
3978.62847	0.07075
3976.69990	0.07117
3974.77134	0.07156
3972.84277	0.07190
3970.91421	0.07211
3968.98564	0.07204
3967.05708	0.07172
3965.12852	0.07160
3963.19995	0.07217
3961.27139	0.07300
3959.34282	0.07327
3957.41426	0.07315
3955.48569	0.07319
3953.55713	0.07325
3951.62856	0.07323
3949.70000	0.07351
3947.77144	0.07412
3945.84287	0.07429
3943.91431	0.07395
3941.98574	0.07351
3940.05718	0.07277
3938.12861	0.07214
3936.20005	0.07221
3934.27148	0.07317
3932.34292	0.07485
3930.41436	0.07588
3928.48579	0.07535
3926.55723	0.07469
3924.62866	0.07493
3922.70010	0.07512
3920.77153	0.07445
3918.84297	0.07377
3916.91440	0.07364
3914.98584	0.07343
3913.05728	0.07293
3911.12871	0.07263
3909.20015	0.07264
3907.27158	0.07308
3905.34302	0.07447
3903.41445	0.07654
3901.48589	0.07772
3899.55732	0.07749
3897.62876	0.07598
3895.70020	0.07416
3893.77163	0.07373
3891.84307	0.07467
3889.91450	0.07517
3887.98594	0.07459
3886.05737	0.07486
3884.12881	0.07600
3882.20024	0.07628
3880.27168	0.07609
3878.34312	0.07559
3876.41455	0.07511
3874.48599	0.07602
3872.55742	0.07790
3870.62886	0.07960
3868.70029	0.08036
3866.77173	0.07946
3864.84316	0.07911
3862.91460	0.07996
3860.98604	0.07989
3859.05747	0.07924
3857.12891	0.07940
3855.20034	0.08080
3853.27178	0.08393
3851.34321	0.08576
3849.41465	0.08324
3847.48608	0.08035
3845.55752	0.07947
3843.62896	0.08102
3841.70039	0.08372
3839.77183	0.08629
3837.84326	0.08837
3835.91470	0.08869
3833.98613	0.08759
3832.05757	0.08687
3830.12900	0.08665
3828.20044	0.08661
3826.27187	0.08730
3824.34331	0.08871
3822.41475	0.09093
3820.48618	0.09434
3818.55762	0.09580
3816.62905	0.09527
3814.70049	0.09489
3812.77192	0.09374
3810.84336	0.09269
3808.91479	0.09327
3806.98623	0.09575
3805.05767	0.09840
3803.12910	0.10027
3801.20054	0.10276
3799.27197	0.10428
3797.34341	0.10423
3795.41484	0.10444
3793.48628	0.10451
3791.55771	0.10451
3789.62915	0.10493
3787.70059	0.10598
3785.77202	0.10818
3783.84346	0.11062
3781.91489	0.11201
3779.98633	0.11354
3778.05776	0.11561
3776.12920	0.11657
3774.20063	0.11707
3772.27207	0.11851
3770.34351	0.12129
3768.41494	0.12455
3766.48638	0.12666
3764.55781	0.12821
3762.62925	0.12990
3760.70068	0.13227
3758.77212	0.13576
3756.84355	0.13882
3754.91499	0.14083
3752.98643	0.14413
3751.05786	0.15056
3749.12930	0.15705
3747.20073	0.15890
3745.27217	0.15981
3743.34360	0.16345
3741.41504	0.16791
3739.48647	0.17138
3737.55791	0.17598
3735.62935	0.18367
3733.70078	0.19246
3731.77222	0.19725
3729.84365	0.19974
3727.91509	0.20319
3725.98652	0.20883
3724.05796	0.21553
3722.12939	0.22134
3720.20083	0.22649
3718.27227	0.23139
3716.34370	0.23669
3714.41514	0.24333
3712.48657	0.25351
3710.55801	0.26937
3708.62944	0.28538
3706.70088	0.29694
3704.77231	0.30768
3702.84375	0.32066
3700.91519	0.33762
3698.98662	0.35599
3697.05806	0.37330
3695.12949	0.39162
3693.20093	0.41141
3691.27236	0.43363
3689.34380	0.46206
3687.41523	0.49504
3685.48667	0.52346
3683.55811	0.54890
3681.62954	0.57705
3679.70098	0.60957
3677.77241	0.64445
3675.84385	0.68524
3673.91528	0.73850
3671.98672	0.78155
3670.05815	0.82020
3668.12959	0.87312
3666.20103	0.92066
3664.27246	0.96021
3662.34390	1.00310
3660.41533	1.04987
3658.48677	1.09638
3656.55820	1.14652
3654.62964	1.20284
3652.70107	1.24992
3650.77251	1.29111
3648.84395	1.34882
3646.91538	1.41823
3644.98682	1.46730
3643.05825	1.50497
3641.12969	1.54429
3639.20112	1.58891
3637.27256	1.63476
3635.34399	1.67894
3633.41543	1.72299
3631.48687	1.76522
3629.55830	1.80856
3627.62974	1.86332
3625.70117	1.91201
3623.77261	1.94442
3621.84404	1.97643
3619.91548	2.01365
3617.98691	2.05851
3616.05835	2.10138
3614.12979	2.13747
3612.20122	2.17673
3610.27266	2.21700
3608.34409	2.25723
3606.41553	2.29943
3604.48696	2.33793
3602.55840	2.37247
3600.62983	2.40999
3598.70127	2.44971
3596.77271	2.48832
3594.84414	2.52829
3592.91558	2.56848
3590.98701	2.60534
3589.05845	2.64092
3587.12988	2.68522
3585.20132	2.73487
3583.27275	2.77606
3581.34419	2.81232
3579.41562	2.85043
3577.48706	2.89101
3575.55850	2.93327
3573.62993	2.97870
3571.70137	3.02250
3569.77280	3.06050
3567.84424	3.09932
3565.91567	3.15216
3563.98711	3.20736
3562.05854	3.25044
3560.12998	3.29032
3558.20142	3.33193
3556.27285	3.37499
3554.34429	3.41728
3552.41572	3.46078
3550.48716	3.50693
3548.55859	3.55268
3546.63003	3.59694
3544.70146	3.64339
3542.77290	3.69200
3540.84434	3.73811
3538.91577	3.78309
3536.98721	3.83230
3535.05864	3.88572
3533.13008	3.93444
3531.20151	3.97765
3529.27295	4.02201
3527.34438	4.07160
3525.41582	4.12274
3523.48726	4.17035
3521.55869	4.21526
3519.63013	4.25943
3517.70156	4.30810
3515.77300	4.35946
3513.84443	4.40669
3511.91587	4.45055
3509.98730	4.49760
3508.05874	4.54956
3506.13018	4.59805
3504.20161	4.64217
3502.27305	4.69169
3500.34448	4.74565
3498.41592	4.79332
3496.48735	4.83488
3494.55879	4.87964
3492.63022	4.92938
3490.70166	4.97698
3488.77310	5.02497
3486.84453	5.07359
3484.91597	5.11583
3482.98740	5.16234
3481.05884	5.22157
3479.13027	5.27695
3477.20171	5.31748
3475.27314	5.35792
3473.34458	5.41651
3471.41602	5.47615
3469.48745	5.50954
3467.55889	5.53869
3465.63032	5.58754
3463.70176	5.64612
3461.77319	5.70042
3459.84463	5.74427
3457.91606	5.78685
3455.98750	5.84569
3454.05894	5.91393
3452.13037	5.97162
3450.20181	6.01362
3448.27324	6.04684
3446.34468	6.09553
3444.41611	6.15977
3442.48755	6.21370
3440.55898	6.26345
3438.63042	6.30777
3436.70186	6.33689
3434.77329	6.39455
3432.84473	6.48496
3430.91616	6.54779
3428.98760	6.58262
3427.05903	6.61524
3425.13047	6.66211
3423.20190	6.73366
3421.27334	6.81054
3419.34478	6.85964
3417.41621	6.88611
3415.48765	6.92529
3413.55908	6.98756
3411.63052	7.04126
3409.70195	7.05176
3407.77339	7.06252
3405.84482	7.09518
3403.91626	7.14170
3401.98770	7.20610
3400.05913	7.26849
3398.13057	7.30611
3396.20200	7.30291
3394.27344	7.30764
3392.34487	7.37005
3390.41631	7.46397
3388.48774	7.53709
3386.55918	7.58074
3384.63062	7.60648
3382.70205	7.61885
3380.77349	7.60954
3378.84492	7.61322
3376.91636	7.69141
3374.98779	7.79047
3373.05923	7.83610
3371.13066	7.84477
3369.20210	7.83937
3367.27354	7.80807
3365.34497	7.79948
3363.41641	7.84478
3361.48784	7.90710
3359.55928	7.98257
3357.63071	8.02729
3355.70215	8.02466
3353.77358	8.02783
3351.84502	8.04355
3349.91646	8.05515
3347.98789	8.10096
3346.05933	8.16383
3344.13076	8.21254
3342.20220	8.26814
3340.27363	8.23943
3338.34507	8.14374
3336.41650	8.14898
3334.48794	8.27637
3332.55937	8.35770
3330.63081	8.31375
3328.70225	8.23916
3326.77368	8.20503
3324.84512	8.21071
3322.91655	8.20027
3320.98799	8.14076
3319.05942	8.09854
3317.13086	8.15967
3315.20229	8.25464
3313.27373	8.31315
3311.34517	8.37842
3309.41660	8.39086
3307.48804	8.25561
3305.55947	8.12824
3303.63091	8.15420
3301.70234	8.24712
3299.77378	8.28260
3297.84521	8.22700
3295.91665	8.19161
3293.98809	8.23096
3292.05952	8.27896
3290.13096	8.31209
3288.20239	8.27747
3286.27383	8.19978
3284.34526	8.18624
3282.41670	8.23557
3280.48813	8.26964
3278.55957	8.26504
3276.63101	8.30514
3274.70244	8.46021
3272.77388	8.57708
3270.84531	8.46789
3268.91675	8.23949
3266.98818	8.09169
3265.05962	8.12066
3263.13105	8.24308
3261.20249	8.30840
3259.27393	8.25247
3257.34536	8.13144
3255.41680	8.07992
3253.48823	8.15285
3251.55967	8.23836
3249.63110	8.25082
3247.70254	8.23889
3245.77397	8.23069
3243.84541	8.25500
3241.91685	8.35095
3239.98828	8.45764
3238.05972	8.41884
3236.13115	8.30728
3234.20259	8.24422
3232.27402	8.21620
3230.34546	8.23999
3228.41689	8.26956
3226.48833	8.22243
3224.55977	8.12814
3222.63120	8.08845
3220.70264	8.11283
3218.77407	8.10628
3216.84551	8.02816
3214.91694	7.96017
3212.98838	7.97924
3211.05981	8.07856
3209.13125	8.13805
3207.20269	8.03622
3205.27412	7.90611
3203.34556	7.89931
3201.41699	7.97780
3199.48843	8.01114
3197.55986	7.93242
3195.63130	7.79731
3193.70273	7.69595
3191.77417	7.64125
3189.84561	7.59643
3187.91704	7.56248
3185.98848	7.50256
3184.05991	7.38668
3182.13135	7.27141
3180.20278	7.19303
3178.27422	7.16904
3176.34565	7.19217
3174.41709	7.17767
3172.48853	7.08204
3170.55996	6.96007
3168.63140	6.86316
3166.70283	6.80302
3164.77427	6.76882
3162.84570	6.74618
3160.91714	6.70899
3158.98857	6.63290
3157.06001	6.52707
3155.13145	6.44356
3153.20288	6.41199
3151.27432	6.38104
3149.34575	6.30579
3147.41719	6.21148
3145.48862	6.12290
3143.56006	6.04067
3141.63149	5.96662
3139.70293	5.90376
3137.77437	5.85071
3135.84580	5.79230
3133.91724	5.71600
3131.98867	5.63705
3130.06011	5.56818
3128.13154	5.49560
3126.20298	5.41340
3124.27441	5.33822
3122.34585	5.26989
3120.41729	5.19096
3118.48872	5.10847
3116.56016	5.03973
3114.63159	4.97716
3112.70303	4.90945
3110.77446	4.83965
3108.84590	4.77116
3106.91733	4.70349
3104.98877	4.63605
3103.06021	4.57027
3101.13164	4.50494
3099.20308	4.43792
3097.27451	4.36926
3095.34595	4.30123
3093.41738	4.23760
3091.48882	4.17631
3089.56025	4.11298
3087.63169	4.04782
3085.70312	3.98197
3083.77456	3.91455
3081.84600	3.84751
3079.91743	3.78464
3077.98887	3.72571
3076.06030	3.66851
3074.13174	3.61162
3072.20317	3.55507
3070.27461	3.49851
3068.34604	3.44074
3066.41748	3.38360
3064.48892	3.32861
3062.56035	3.27332
3060.63179	3.21743
3058.70322	3.16250
3056.77466	3.10831
3054.84609	3.05545
3052.91753	3.00397
3050.98896	2.95361
3049.06040	2.90466
3047.13184	2.85578
3045.20327	2.80644
3043.27471	2.75735
3041.34614	2.70886
3039.41758	2.66186
3037.48901	2.61613
3035.56045	2.57072
3033.63188	2.52606
3031.70332	2.48193
3029.77476	2.43826
3027.84619	2.39598
3025.91763	2.35406
3023.98906	2.31143
3022.06050	2.26940
3020.13193	2.22889
3018.20337	2.18957
3016.27480	2.15115
3014.34624	2.11311
3012.41768	2.07499
3010.48911	2.03778
3008.56055	2.00244
3006.63198	1.96764
3004.70342	1.93210
3002.77485	1.89646
3000.84629	1.86176
2998.91772	1.82818
2996.98916	1.79559
2995.06060	1.76354
2993.13203	1.73144
2991.20347	1.69960
2989.27490	1.66855
2987.34634	1.63809
2985.41777	1.60782
2983.48921	1.57777
2981.56064	1.54838
2979.63208	1.52003
2977.70352	1.49237
2975.77495	1.46482
2973.84639	1.43725
2971.91782	1.40993
2969.98926	1.38337
2968.06069	1.35775
2966.13213	1.33276
2964.20356	1.30829
2962.27500	1.28445
2960.34644	1.26077
2958.41787	1.23694
2956.48931	1.21384
2954.56074	1.19172
2952.63218	1.16961
2950.70361	1.14764
2948.77505	1.12655
2946.84648	1.10579
2944.91792	1.08474
2942.98936	1.06375
2941.06079	1.04368
2939.13223	1.02478
2937.20366	1.00615
2935.27510	0.98720
2933.34653	0.96841
2931.41797	0.95010
2929.48940	0.93212
2927.56084	0.91486
2925.63228	0.89869
2923.70371	0.88312
2921.77515	0.86750
2919.84658	0.85176
2917.91802	0.83595
2915.98945	0.82043
2914.06089	0.80568
2912.13232	0.79118
2910.20376	0.77651
2908.27520	0.76226
2906.34663	0.74869
2904.41807	0.73529
2902.48950	0.72204
2900.56094	0.70941
2898.63237	0.69748
2896.70381	0.68567
2894.77524	0.67360
2892.84668	0.66146
2890.91812	0.64965
2888.98955	0.63837
2887.06099	0.62749
2885.13242	0.61670
2883.20386	0.60586
2881.27529	0.59513
2879.34673	0.58447
2877.41816	0.57392
2875.48960	0.56392
2873.56104	0.55460
2871.63247	0.54545
2869.70391	0.53614
2867.77534	0.52688
2865.84678	0.51762
2863.91821	0.50831
2861.98965	0.49921
2860.06108	0.49043
2858.13252	0.48210
2856.20396	0.47421
2854.27539	0.46640
2852.34683	0.45858
2850.41826	0.45096
2848.48970	0.44341
2846.56113	0.43594
2844.63257	0.42902
2842.70400	0.42275
2840.77544	0.41693
2838.84687	0.41126
2836.91831	0.40532
2834.98975	0.39933
2833.06118	0.39379
2831.13262	0.38852
2829.20405	0.38293
2827.27549	0.37687
2825.34692	0.37081
2823.41836	0.36527
2821.48979	0.36005
2819.56123	0.35472
2817.63267	0.34920
2815.70410	0.34378
2813.77554	0.33864
2811.84697	0.33380
2809.91841	0.32906
2807.98984	0.32415
2806.06128	0.31919
2804.13271	0.31447
2802.20415	0.31002
2800.27559	0.30567
2798.34702	0.30126
2796.41846	0.29693
2794.48989	0.29278
2792.56133	0.28872
2790.63276	0.28471
2788.70420	0.28061
2786.77563	0.27650
2784.84707	0.27273
2782.91851	0.26922
2780.98994	0.26559
2779.06138	0.26193
2777.13281	0.25837
2775.20425	0.25501
2773.27568	0.25179
2771.34712	0.24855
2769.41855	0.24531
2767.48999	0.24215
2765.56143	0.23900
2763.63286	0.23592
2761.70430	0.23306
2759.77573	0.23041
2757.84717	0.22779
2755.91860	0.22510
2753.99004	0.22233
2752.06147	0.21962
2750.13291	0.21704
2748.20435	0.21453
2746.27578	0.21198
2744.34722	0.20937
2742.41865	0.20684
2740.49009	0.20451
2738.56152	0.20235
2736.63296	0.20026
2734.70439	0.19816
2732.77583	0.19602
2730.84727	0.19389
2728.91870	0.19185
2726.99014	0.18990
2725.06157	0.18802
2723.13301	0.18618
2721.20444	0.18441
2719.27588	0.18268
2717.34731	0.18100
2715.41875	0.17934
2713.49019	0.17763
2711.56162	0.17597
2709.63306	0.17440
2707.70449	0.17279
2705.77593	0.17125
2703.84736	0.16995
2701.91880	0.16867
2699.99023	0.16714
2698.06167	0.16557
2696.13311	0.16419
2694.20454	0.16295
2692.27598	0.16181
2690.34741	0.16063
2688.41885	0.15936
2686.49028	0.15817
2684.56172	0.15710
2682.63315	0.15609
2680.70459	0.15526
2678.77603	0.15453
2676.84746	0.15365
2674.91890	0.15261
2672.99033	0.15165
2671.06177	0.15075
2669.13320	0.14973
2667.20464	0.14869
2665.27607	0.14786
2663.34751	0.14720
2661.41895	0.14658
2659.49038	0.14590
2657.56182	0.14525
2655.63325	0.14470
2653.70469	0.14412
2651.77612	0.14357
2649.84756	0.14319
2647.91899	0.14281
2645.99043	0.14228
2644.06187	0.14167
2642.13330	0.14109
2640.20474	0.14064
2638.27617	0.14025
2636.34761	0.13987
2634.41904	0.13963
2632.49048	0.13945
2630.56191	0.13917
2628.63335	0.13887
2626.70479	0.13864
2624.77622	0.13844
2622.84766	0.13826
2620.91909	0.13806
2618.99053	0.13786
2617.06196	0.13773
2615.13340	0.13766
2613.20483	0.13755
2611.27627	0.13742
2609.34771	0.13747
2607.41914	0.13772
2605.49058	0.13785
2603.56201	0.13778
2601.63345	0.13777
2599.70488	0.13789
2597.77632	0.13801
2595.84775	0.13810
2593.91919	0.13825
2591.99062	0.13860
2590.06206	0.13898
2588.13350	0.13920
2586.20493	0.13939
2584.27637	0.13961
2582.34780	0.13985
2580.41924	0.14018
2578.49067	0.14060
2576.56211	0.14105
2574.63354	0.14145
2572.70498	0.14180
2570.77642	0.14220
2568.84785	0.14260
2566.91929	0.14300
2564.99072	0.14345
2563.06216	0.14388
2561.13359	0.14435
2559.20503	0.14495
2557.27646	0.14559
2555.34790	0.14624
2553.41934	0.14683
2551.49077	0.14733
2549.56221	0.14786
2547.63364	0.14846
2545.70508	0.14912
2543.77651	0.14985
2541.84795	0.15048
2539.91938	0.15097
2537.99082	0.15153
2536.06226	0.15225
2534.13369	0.15306
2532.20513	0.15387
2530.27656	0.15464
2528.34800	0.15546
2526.41943	0.15633
2524.49087	0.15709
2522.56230	0.15783
2520.63374	0.15867
2518.70518	0.15951
2516.77661	0.16031
2514.84805	0.16110
2512.91948	0.16201
2510.99092	0.16293
2509.06235	0.16369
2507.13379	0.16438
2505.20522	0.16519
2503.27666	0.16612
2501.34810	0.16705
2499.41953	0.16790
2497.49097	0.16866
2495.56240	0.16943
2493.63384	0.17034
2491.70527	0.17132
2489.77671	0.17231
2487.84814	0.17327
2485.91958	0.17418
2483.99102	0.17509
2482.06245	0.17599
2480.13389	0.17685
2478.20532	0.17776
2476.27676	0.17880
2474.34819	0.17993
2472.41963	0.18106
2470.49106	0.18208
2468.56250	0.18294
2466.63394	0.18366
2464.70537	0.18447
2462.77681	0.18554
2460.84824	0.18663
2458.91968	0.18763
2456.99111	0.18868
2455.06255	0.18980
2453.13398	0.19083
2451.20542	0.19180
2449.27686	0.19279
2447.34829	0.19379
2445.41973	0.19480
2443.49116	0.19588
2441.56260	0.19698
2439.63403	0.19802
2437.70547	0.19904
2435.77690	0.20011
2433.84834	0.20114
2431.91978	0.20216
2429.99121	0.20322
2428.06265	0.20421
2426.13408	0.20519
2424.20552	0.20628
2422.27695	0.20746
2420.34839	0.20865
2418.41982	0.20986
2416.49126	0.21098
2414.56270	0.21199
2412.63413	0.21308
2410.70557	0.21432
2408.77700	0.21571
2406.84844	0.21707
2404.91987	0.21823
2402.99131	0.21923
2401.06274	0.22026
2399.13418	0.22144
2397.20562	0.22276
2395.27705	0.22407
2393.34849	0.22529
2391.41992	0.22659
2389.49136	0.22827
2387.56279	0.23063
2385.63423	0.23408
2383.70566	0.23898
2381.77710	0.24537
2379.84854	0.25316
2377.91997	0.26233
2375.99141	0.27330
2374.06284	0.28646
2372.13428	0.30142
2370.20571	0.31791
2368.27715	0.33585
2366.34858	0.35335
2364.42002	0.36741
2362.49146	0.37726
2360.56289	0.38394
2358.63433	0.38704
2356.70576	0.38230
2354.77720	0.36872
2352.84863	0.35105
2350.92007	0.33373
2348.99150	0.32381
2347.06294	0.32448
2345.13437	0.33556
2343.20581	0.35138
2341.27725	0.36040
2339.34868	0.36140
2337.42012	0.36041
2335.49155	0.36039
2333.56299	0.36035
2331.63442	0.35967
2329.70586	0.35858
2327.77729	0.35633
2325.84873	0.35215
2323.92017	0.34709
2321.99160	0.34217
2320.06304	0.33729
2318.13447	0.33252
2316.20591	0.32845
2314.27734	0.32577
2312.34878	0.32467
2310.42021	0.32410
2308.49165	0.32256
2306.56309	0.32001
2304.63452	0.31765
2302.70596	0.31649
2300.77739	0.31628
2298.84883	0.31623
2296.92026	0.31629
2294.99170	0.31655
2293.06313	0.31675
2291.13457	0.31702
2289.20601	0.31748
2287.27744	0.31782
2285.34888	0.31805
2283.42031	0.31882
2281.49175	0.32049
2279.56318	0.32278
2277.63462	0.32529
2275.70605	0.32776
2273.77749	0.32993
2271.84893	0.33179
2269.92036	0.33364
2267.99180	0.33567
2266.06323	0.33769
2264.13467	0.33954
2262.20610	0.34137
2260.27754	0.34321
2258.34897	0.34504
2256.42041	0.34698
2254.49185	0.34901
2252.56328	0.35098
2250.63472	0.35288
2248.70615	0.35480
2246.77759	0.35675
2244.84902	0.35867
2242.92046	0.36062
2240.99189	0.36271
2239.06333	0.36474
2237.13477	0.36667
2235.20620	0.36879
2233.27764	0.37112
2231.34907	0.37344
2229.42051	0.37561
2227.49194	0.37766
2225.56338	0.37973
2223.63481	0.38190
2221.70625	0.38415
2219.77769	0.38642
2217.84912	0.38862
2215.92056	0.39075
2213.99199	0.39284
2212.06343	0.39497
2210.13486	0.39714
2208.20630	0.39934
2206.27773	0.40148
2204.34917	0.40345
2202.42061	0.40539
2200.49204	0.40736
2198.56348	0.40937
2196.63491	0.41133
2194.70635	0.41322
2192.77778	0.41526
2190.84922	0.41741
2188.92065	0.41926
2186.99209	0.42091
2185.06353	0.42264
2183.13496	0.42436
2181.20640	0.42609
2179.27783	0.42782
2177.34927	0.42949
2175.42070	0.43100
2173.49214	0.43234
2171.56357	0.43376
2169.63501	0.43532
2167.70645	0.43676
2165.77788	0.43803
2163.84932	0.43930
2161.92075	0.44053
2159.99219	0.44158
2158.06362	0.44246
2156.13506	0.44332
2154.20649	0.44430
2152.27793	0.44536
2150.34937	0.44625
2148.42080	0.44687
2146.49224	0.44739
2144.56367	0.44789
2142.63511	0.44838
2140.70654	0.44879
2138.77798	0.44906
2136.84941	0.44931
2134.92085	0.44960
2132.99229	0.44972
2131.06372	0.44966
2129.13516	0.44952
2127.20659	0.44927
2125.27803	0.44899
2123.34946	0.44877
2121.42090	0.44851
2119.49233	0.44807
2117.56377	0.44752
2115.63521	0.44691
2113.70664	0.44616
2111.77808	0.44528
2109.84951	0.44446
2107.92095	0.44359
2105.99238	0.44249
2104.06382	0.44128
2102.13525	0.44015
2100.20669	0.43898
2098.27812	0.43763
2096.34956	0.43623
2094.42100	0.43483
2092.49243	0.43341
2090.56387	0.43193
2088.63530	0.43029
2086.70674	0.42856
2084.77817	0.42683
2082.84961	0.42513
2080.92104	0.42334
2078.99248	0.42140
2077.06392	0.41936
2075.13535	0.41728
2073.20679	0.41515
2071.27822	0.41301
2069.34966	0.41093
2067.42109	0.40883
2065.49253	0.40674
2063.56396	0.40454
2061.63540	0.40204
2059.70684	0.39946
2057.77827	0.39706
2055.84971	0.39464
2053.92114	0.39207
2051.99258	0.38947
2050.06401	0.38689
2048.13545	0.38435
2046.20688	0.38183
2044.27832	0.37937
2042.34976	0.37684
2040.42119	0.37412
2038.49263	0.37129
2036.56406	0.36851
2034.63550	0.36583
2032.70693	0.36323
2030.77837	0.36065
2028.84980	0.35804
2026.92124	0.35533
2024.99268	0.35250
2023.06411	0.34972
2021.13555	0.34710
2019.20698	0.34461
2017.27842	0.34205
2015.34985	0.33920
2013.42129	0.33628
2011.49272	0.33356
2009.56416	0.33100
2007.63560	0.32843
2005.70703	0.32572
2003.77847	0.32297
2001.84990	0.32040
1999.92134	0.31791
1997.99277	0.31531
1996.06421	0.31272
1994.13564	0.31042
1992.20708	0.30824
1990.27852	0.30573
1988.34995	0.30307
1986.42139	0.30052
1984.49282	0.29805
1982.56426	0.29566
1980.63569	0.29333
1978.70713	0.29103
1976.77856	0.28881
1974.85000	0.28669
1972.92144	0.28452
1970.99287	0.28231
1969.06431	0.28031
1967.13574	0.27852
1965.20718	0.27656
1963.27861	0.27446
1961.35005	0.27243
1959.42148	0.27047
1957.49292	0.26860
1955.56436	0.26684
1953.63579	0.26515
1951.70723	0.26346
1949.77866	0.26171
1947.85010	0.25998
1945.92153	0.25849
1943.99297	0.25731
1942.06440	0.25604
1940.13584	0.25433
1938.20728	0.25259
1936.27871	0.25117
1934.35015	0.24996
1932.42158	0.24877
1930.49302	0.24757
1928.56445	0.24642
1926.63589	0.24531
1924.70732	0.24449
1922.77876	0.24387
1920.85020	0.24294
1918.92163	0.24187
1916.99307	0.24088
1915.06450	0.23975
1913.13594	0.23871
1911.20737	0.23808
1909.27881	0.23757
1907.35024	0.23691
1905.42168	0.23613
1903.49312	0.23540
1901.56455	0.23478
1899.63599	0.23427
1897.70742	0.23382
1895.77886	0.23346
1893.85029	0.23312
1891.92173	0.23281
1889.99316	0.23280
1888.06460	0.23265
1886.13604	0.23215
1884.20747	0.23175
1882.27891	0.23142
1880.35034	0.23114
1878.42178	0.23105
1876.49321	0.23111
1874.56465	0.23111
1872.63608	0.23132
1870.70752	0.23201
1868.77896	0.23306
1866.85039	0.23333
1864.92183	0.23269
1862.99326	0.23225
1861.06470	0.23230
1859.13613	0.23263
1857.20757	0.23299
1855.27900	0.23345
1853.35044	0.23393
1851.42187	0.23448
1849.49331	0.23518
1847.56475	0.23607
1845.63618	0.23718
1843.70762	0.23829
1841.77905	0.23866
1839.85049	0.23873
1837.92192	0.23943
1835.99336	0.24029
1834.06479	0.24106
1832.13623	0.24222
1830.20767	0.24416
1828.27910	0.24596
1826.35054	0.24691
1824.42197	0.24787
1822.49341	0.24875
1820.56484	0.24967
1818.63628	0.25091
1816.70771	0.25248
1814.77915	0.25415
1812.85059	0.25611
1810.92202	0.25836
1808.99346	0.26031
1807.06489	0.26197
1805.13633	0.26381
1803.20776	0.26623
1801.27920	0.26903
1799.35063	0.27193
1797.42207	0.27439
1795.49351	0.27685
1793.56494	0.27999
1791.63638	0.28392
1789.70781	0.28707
1787.77925	0.28915
1785.85068	0.29202
1783.92212	0.29569
1781.99355	0.29973
1780.06499	0.30393
1778.13643	0.30804
1776.20786	0.31209
1774.27930	0.31691
1772.35073	0.32340
1770.42217	0.32974
1768.49360	0.33450
1766.56504	0.33908
1764.63647	0.34413
1762.70791	0.35009
1760.77935	0.35768
1758.85078	0.36467
1756.92222	0.37179
1754.99365	0.37960
1753.06509	0.38674
1751.13652	0.39547
1749.20796	0.40652
1747.27939	0.41705
1745.35083	0.42598
1743.42227	0.43543
1741.49370	0.44591
1739.56514	0.45826
1737.63657	0.47068
1735.70801	0.48175
1733.77944	0.49850
1731.85088	0.51805
1729.92231	0.53295
1727.99375	0.54793
1726.06519	0.56426
1724.13662	0.58249
1722.20806	0.60241
1720.27949	0.62098
1718.35093	0.64293
1716.42236	0.67513
1714.49380	0.70513
1712.56523	0.72899
1710.63667	0.75207
1708.70811	0.77712
1706.77954	0.80598
1704.85098	0.84055
1702.92241	0.87106
1700.99385	0.90103
1699.06528	0.94603
1697.13672	0.98717
1695.20815	1.02779
1693.27959	1.06609
1691.35103	1.09696
1689.42246	1.13334
1687.49390	1.17201
1685.56533	1.20917
1683.63677	1.26504
1681.70820	1.32128
1679.77964	1.35705
1677.85107	1.39160
1675.92251	1.43134
1673.99395	1.48056
1672.06538	1.52476
1670.13682	1.56801
1668.20825	1.62277
1666.27969	1.66611
1664.35112	1.70212
1662.42256	1.74640
1660.49399	1.79503
1658.56543	1.83204
1656.63687	1.86235
1654.70830	1.89324
1652.77974	1.94913
1650.85117	2.00226
1648.92261	2.02204
1646.99404	2.05120
1645.06548	2.08668
1643.13691	2.10854
1641.20835	2.12226
1639.27979	2.13502
1637.35122	2.14406
1635.42266	2.14759
1633.49409	2.14316
1631.56553	2.13268
1629.63696	2.11959
1627.70840	2.09669
1625.77983	2.06947
1623.85127	2.03561
1621.92271	1.99278
1619.99414	1.95344
1618.06558	1.91480
1616.13701	1.85834
1614.20845	1.79892
1612.27988	1.75332
1610.35132	1.70575
1608.42275	1.65363
1606.49419	1.60145
1604.56562	1.55255
1602.63706	1.50508
1600.70850	1.45893
1598.77993	1.41640
1596.85137	1.37580
1594.92280	1.33598
1592.99424	1.29765
1591.06567	1.26247
1589.13711	1.22878
1587.20854	1.19660
1585.27998	1.16664
1583.35142	1.13852
1581.42285	1.11255
1579.49429	1.09012
1577.56572	1.06952
1575.63716	1.04300
1573.70859	1.01847
1571.78003	1.00219
1569.85146	0.98475
1567.92290	0.96433
1565.99434	0.94758
1564.06577	0.93306
1562.13721	0.92102
1560.20864	0.91138
1558.28008	0.89379
1556.35151	0.87590
1554.42295	0.86457
1552.49438	0.85336
1550.56582	0.84236
1548.63726	0.83165
1546.70869	0.82303
1544.78013	0.81621
1542.85156	0.80954
1540.92300	0.80134
1538.99443	0.78839
1537.06587	0.77812
1535.13730	0.77207
1533.20874	0.76544
1531.28018	0.75771
1529.35161	0.75165
1527.42305	0.74622
1525.49448	0.74060
1523.56592	0.73567
1521.63735	0.73069
1519.70879	0.72452
1517.78022	0.71888
1515.85166	0.71285
1513.92310	0.70678
1511.99453	0.70235
1510.06597	0.69930
1508.13740	0.69706
1506.20884	0.69201
1504.28027	0.68529
1502.35171	0.68111
1500.42314	0.67813
1498.49458	0.67547
1496.56602	0.67208
1494.63745	0.66801
1492.70889	0.66482
1490.78032	0.66266
1488.85176	0.65998
1486.92319	0.65603
1484.99463	0.65221
1483.06606	0.64919
1481.13750	0.64647
1479.20894	0.64377
1477.28037	0.64147
1475.35181	0.63956
1473.42324	0.63756
1471.49468	0.63417
1469.56611	0.63018
1467.63755	0.62714
1465.70898	0.62485
1463.78042	0.62257
1461.85186	0.62048
1459.92329	0.61929
1457.99473	0.61859
1456.06616	0.61616
1454.13760	0.61247
1452.20903	0.60981
1450.28047	0.60793
1448.35190	0.60642
1446.42334	0.60465
1444.49478	0.60261
1442.56621	0.60079
1440.63765	0.59942
1438.70908	0.59864
1436.78052	0.59798
1434.85195	0.59633
1432.92339	0.59427
1430.99482	0.59273
1429.06626	0.59131
1427.13770	0.58975
1425.20913	0.58849
1423.28057	0.58741
1421.35200	0.58625
1419.42344	0.58517
1417.49487	0.58361
1415.56631	0.58138
1413.63774	0.57946
1411.70918	0.57803
1409.78062	0.57671
1407.85205	0.57540
1405.92349	0.57437
1403.99492	0.57330
1402.06636	0.57191
1400.13779	0.57080
1398.20923	0.57001
1396.28066	0.56900
1394.35210	0.56747
1392.42354	0.56571
1390.49497	0.56443
1388.56641	0.56358
1386.63784	0.56246
1384.70928	0.56084
1382.78071	0.55929
1380.85215	0.55812
1378.92358	0.55728
1376.99502	0.55668
1375.06646	0.55628
1373.13789	0.55541
1371.20933	0.55396
1369.28076	0.55278
1367.35220	0.55186
1365.42363	0.55101
1363.49507	0.55042
1361.56650	0.54966
1359.63794	0.54839
1357.70937	0.54718
1355.78081	0.54631
1353.85225	0.54562
1351.92368	0.54483
1349.99512	0.54388
1348.06655	0.54296
1346.13799	0.54217
1344.20942	0.54150
1342.28086	0.54104
1340.35229	0.54079
1338.42373	0.54012
1336.49517	0.53886
1334.56660	0.53762
1332.63804	0.53665
1330.70947	0.53579
1328.78091	0.53494
1326.85234	0.53413
1324.92378	0.53336
1322.99521	0.53258
1321.06665	0.53186
1319.13809	0.53131
1317.20952	0.53068
1315.28096	0.52987
1313.35239	0.52903
1311.42383	0.52827
1309.49526	0.52752
1307.56670	0.52676
1305.63813	0.52610
1303.70957	0.52555
1301.78101	0.52499
1299.85244	0.52436
1297.92388	0.52364
1295.99531	0.52280
1294.06675	0.52196
1292.13818	0.52127
1290.20962	0.52079
1288.28105	0.52047
1286.35249	0.52005
1284.42393	0.51947
1282.49536	0.51899
1280.56680	0.51871
1278.63823	0.51844
1276.70967	0.51805
1274.78110	0.51756
1272.85254	0.51708
1270.92397	0.51667
1268.99541	0.51632
1267.06685	0.51591
1265.13828	0.51541
1263.20972	0.51498
1261.28115	0.51470
1259.35259	0.51453
1257.42402	0.51434
1255.49546	0.51404
1253.56689	0.51362
1251.63833	0.51323
1249.70977	0.51293
1247.78120	0.51268
1245.85264	0.51255
1243.92407	0.51241
1241.99551	0.51207
1240.06694	0.51156
1238.13838	0.51111
1236.20981	0.51075
1234.28125	0.51037
1232.35269	0.50997
1230.42412	0.50954
1228.49556	0.50897
1226.56699	0.50836
1224.63843	0.50791
1222.70986	0.50745
1220.78130	0.50686
1218.85273	0.50624
1216.92417	0.50565
1214.99561	0.50498
1213.06704	0.50420
1211.13848	0.50343
1209.20991	0.50284
1207.28135	0.50237
1205.35278	0.50185
1203.42422	0.50134
1201.49565	0.50090
1199.56709	0.50052
1197.63853	0.50018
1195.70996	0.49980
1193.78140	0.49931
1191.85283	0.49878
1189.92427	0.49835
1187.99570	0.49805
1186.06714	0.49782
1184.13857	0.49762
1182.21001	0.49749
1180.28145	0.49755
1178.35288	0.49785
1176.42432	0.49834
1174.49575	0.49884
1172.56719	0.49922
1170.63862	0.49951
1168.71006	0.49970
1166.78149	0.49983
1164.85293	0.49999
1162.92437	0.50010
1160.99580	0.49991
1159.06724	0.49932
1157.13867	0.49868
1155.21011	0.49807
1153.28154	0.49720
1151.35298	0.49592
1149.42441	0.49431
1147.49585	0.49243
1145.56729	0.49039
1143.63872	0.48832
1141.71016	0.48625
1139.78159	0.48411
1137.85303	0.48200
1135.92446	0.47998
1133.99590	0.47816
1132.06733	0.47657
1130.13877	0.47492
1128.21021	0.47326
1126.28164	0.47174
1124.35308	0.47030
1122.42451	0.46914
1120.49595	0.46848
1118.56738	0.46813
1116.63882	0.46794
1114.71025	0.46785
1112.78169	0.46795
1110.85312	0.46844
1108.92456	0.46920
1106.99600	0.46999
1105.06743	0.47102
1103.13887	0.47265
1101.21030	0.47472
1099.28174	0.47690
1097.35317	0.47921
1095.42461	0.48210
1093.49604	0.48573
1091.56748	0.48991
1089.63892	0.49461
1087.71035	0.49995
1085.78179	0.50592
1083.85322	0.51239
1081.92466	0.51901
1079.99609	0.52489
1078.06753	0.52869
1076.13896	0.52961
1074.21040	0.52794
1072.28184	0.52412
1070.35327	0.51848
1068.42471	0.51201
1066.49614	0.50564
1064.56758	0.49957
1062.63901	0.49403
1060.71045	0.48915
1058.78188	0.48474
1056.85332	0.48067
1054.92476	0.47716
1052.99619	0.47426
1051.06763	0.47185
1049.13906	0.46981
1047.21050	0.46806
1045.28193	0.46649
1043.35337	0.46505
1041.42480	0.46380
1039.49624	0.46294
1037.56768	0.46261
1035.63911	0.46254
1033.71055	0.46246
1031.78198	0.46253
1029.85342	0.46278
1027.92485	0.46318
1025.99629	0.46366
1024.06772	0.46424
1022.13916	0.46507
1020.21060	0.46603
1018.28203	0.46698
1016.35347	0.46794
1014.42490	0.46885
1012.49634	0.46989
1010.56777	0.47148
1008.63921	0.47350
1006.71064	0.47552
1004.78208	0.47755
1002.85352	0.47973
1000.92495	0.48221
998.99639	0.48519
997.06782	0.48870
995.13926	0.49245
993.21069	0.49609
991.28213	0.49938
989.35356	0.50207
987.42500	0.50386
985.49644	0.50489
983.56787	0.50569
981.63931	0.50665
979.71074	0.50813
977.78218	0.51032
975.85361	0.51297
973.92505	0.51590
971.99648	0.51897
970.06792	0.52213
968.13936	0.52567
966.21079	0.52975
964.28223	0.53426
962.35366	0.53908
960.42510	0.54412
958.49653	0.54950
956.56797	0.55519
954.63940	0.56106
952.71084	0.56717
950.78228	0.57337
948.85371	0.57957
946.92515	0.58584
944.99658	0.59196
943.06802	0.59786
941.13945	0.60390
939.21089	0.60988
937.28232	0.61562
935.35376	0.62125
933.42520	0.62615
931.49663	0.63057
929.56807	0.63597
927.63950	0.64217
925.71094	0.64831
923.78237	0.65426
921.85381	0.66037
919.92524	0.66744
917.99668	0.67500
916.06812	0.68176
914.13955	0.68842
912.21099	0.69637
910.28242	0.70494
908.35386	0.71291
906.42529	0.72093
904.49673	0.72963
902.56816	0.73871
900.63960	0.74822
898.71104	0.75770
896.78247	0.76635
894.85391	0.77506
892.92534	0.78453
890.99678	0.79442
889.06821	0.80580
887.13965	0.81857
885.21108	0.83063
883.28252	0.84128
881.35396	0.85188
879.42539	0.86336
877.49683	0.87467
875.56826	0.88564
873.63970	0.89735
871.71113	0.90968
869.78257	0.92098
867.85400	0.93032
865.92544	0.93916
863.99687	0.94959
862.06831	0.96157
860.13975	0.97319
858.21118	0.98483
856.28262	0.99714
854.35405	1.00856
852.42549	1.01964
850.49692	1.03208
848.56836	1.04518
846.63979	1.05716
844.71123	1.06705
842.78267	1.07703
840.85410	1.09011
838.92554	1.10368
836.99697	1.11483
835.06841	1.12577
833.13984	1.13857
831.21128	1.15139
829.28271	1.16216
827.35415	1.17344
825.42559	1.18614
823.49702	1.19624
821.56846	1.20304
819.63989	1.21472
817.71133	1.23426
815.78276	1.25390
813.85420	1.26735
811.92563	1.27827
809.99707	1.29554
808.06851	1.31559
806.13994	1.33277
804.21138	1.35075
802.28281	1.37490
800.35425	1.40318
798.42568	1.42372
796.49712	1.43153
794.56855	1.44325
792.63999	1.46449
790.71143	1.48312
788.78286	1.53186
786.85430	1.59597
784.92573	1.58612
782.99717	1.58192
781.06860	1.61758
779.14004	1.62647
777.21147	1.75406
775.28291	1.82585
773.35435	1.58253
771.42578	1.45465
769.49722	1.39680
767.56865	1.33657
765.64009	1.30960
763.71152	1.34131
761.78296	1.34261
759.85439	1.24531
757.92583	1.16573
755.99727	1.14532
754.06870	1.14289
752.14014	1.17448
750.21157	1.27108
748.28301	1.32803
746.35444	1.25941
744.42588	1.09516
742.49731	0.91588
740.56875	0.81892
738.64019	0.80829
736.71162	0.81043
734.78306	0.71456
732.85449	0.53924
730.92593	0.41615
728.99736	0.41412
727.06880	0.40600
725.14023	0.25802
723.21167	0.12440
721.28311	-0.06881
719.35454	-0.56459
717.42598	-0.56307
715.49741	-0.47914
713.56885	-0.15395
711.64028	-0.02910
709.71172	0.06946
707.78315	0.11195
705.85459	0.05878
703.92603	0.04447
701.99746	0.16494
700.06890	0.30654
698.14033	0.35459
696.21177	0.29056
694.28320	0.19436
692.35464	0.18135
690.42607	0.25942
688.49751	0.24405
686.56895	0.16538
684.64038	0.16693
682.71182	0.26110
680.78325	0.38591
678.85469	0.42267
676.92612	0.40846
674.99756	0.35049
673.06899	0.27018
671.14043	0.23408
669.21187	0.22638
667.28330	0.19392
665.35474	0.20811
663.42617	0.28068
661.49761	0.30293
659.56904	0.27647
657.64048	0.31330
655.71191	0.39772
653.78335	0.33526
651.85479	0.22613
649.92622	0.22593
647.99766	0.27385
646.06909	0.29747
644.14053	0.34464
642.21196	0.42081
640.28340	0.35882
638.35483	0.23795
636.42627	0.20614
634.49771	0.26212
632.56914	0.32351
630.64058	0.30640
628.71201	0.29016
626.78345	0.28013
624.85488	0.21846
622.92632	0.19118
620.99775	0.21768
619.06919	0.15690
617.14062	0.10631
615.21206	0.17162
613.28350	0.28756
611.35493	0.30286
609.42637	0.23774
607.49780	0.21079
605.56924	0.19735
603.64067	0.17474
601.71211	0.18295
599.78354	0.19236
597.85498	0.17388
595.92642	0.18954
593.99785	0.30466
592.06929	0.41222
590.14072	0.34079
588.21216	0.23289
586.28359	0.18525
584.35503	0.17824
582.42646	0.18126
580.49790	0.18094
578.56934	0.16071
576.64077	0.13971
574.71221	0.15959
572.78364	0.21276
570.85508	0.25305
568.92651	0.25921
566.99795	0.26538
565.06938	0.27633
563.14082	0.23749
561.21226	0.19755
559.28369	0.22618
557.35513	0.25303
555.42656	0.19022
553.49800	0.13692
551.56943	0.18319
549.64087	0.26899
547.71230	0.26905
545.78374	0.24925
543.85518	0.27952
541.92661	0.31268
539.99805	0.30215
538.06948	0.24690
536.14092	0.16664
534.21235	0.10983
532.28379	0.08316
530.35522	0.05205
528.42666	0.03854
526.49810	0.10198
524.56953	0.19644
522.64097	0.22829
520.71240	0.19685
518.78384	0.15933
516.85527	0.14755
514.92671	0.15843
512.99814	0.15530
511.06958	0.13949
509.14102	0.14907
507.21245	0.19317
505.28389	0.24800
503.35532	0.23930
501.42676	0.16643
499.49819	0.09166
