3997.91411	0.06959
3995.98555	0.07000
3994.05698	0.07033
3992.12842	0.07059
3990.19985	0.07079
3988.27129	0.07089
3986.34272	0.07105
3984.41416	0.07155
3982.48560	0.07195
3980.55703	0.07201
3978.62847	0.07235
3976.69990	0.07286
3974.77134	0.07299
3972.84277	0.07318
3970.91421	0.07361
3968.98564	0.07364
3967.05708	0.07329
3965.12852	0.07324
3963.19995	0.07377
3961.27139	0.07428
3959.34282	0.07425
3957.41426	0.07412
3955.48569	0.07421
3953.55713	0.07421
3951.62856	0.07432
3949.70000	0.07492
3947.77144	0.07546
3945.84287	0.07521
3943.91431	0.07487
3941.98574	0.07502
3940.05718	0.07498
3938.12861	0.07464
3936.20005	0.07424
3934.27148	0.07380
3932.34292	0.07387
3930.41436	0.07448
3928.48579	0.07471
3926.55723	0.07447
3924.62866	0.07448
3922.70010	0.07471
3920.77153	0.07466
3918.84297	0.07450
3916.91440	0.07458
3914.98584	0.07459
3913.05728	0.07418
3911.12871	0.07372
3909.20015	0.07344
3907.27158	0.07334
3905.34302	0.07377
3903.41445	0.07486
3901.48589	0.07542
3899.55732	0.07483
3897.62876	0.07394
3895.70020	0.07321
3893.77163	0.07302
3891.84307	0.07375
3889.91450	0.07472
3887.98594	0.07498
3886.05737	0.07531
3884.12881	0.07559
3882.20024	0.07486
3880.27168	0.07451
3878.34312	0.07485
3876.41455	0.07476
3874.48599	0.07504
3872.55742	0.07592
3870.62886	0.07655
3868.70029	0.07691
3866.77173	0.07696
3864.84316	0.07738
3862.91460	0.07816
3860.98604	0.07788
3859.05747	0.07738
3857.12891	0.07785
3855.20034	0.07882
3853.27178	0.08022
3851.34321	0.08184
3849.41465	0.08153
3847.48608	0.08037
3845.55752	0.07999
3843.62896	0.08080
3841.70039	0.08224
3839.77183	0.08355
3837.84326	0.08450
3835.91470	0.08464
3833.98613	0.08437
3832.05757	0.08443
3830.12900	0.08495
3828.20044	0.08586
3826.27187	0.08691
3824.34331	0.08782
3822.41475	0.08876
3820.48618	0.09023
3818.55762	0.09106
3816.62905	0.09122
3814.70049	0.09191
3812.77192	0.09220
3810.84336	0.09207
3808.91479	0.09256
3806.98623	0.09421
3805.05767	0.09639
3803.12910	0.09804
3801.20054	0.09995
3799.27197	0.10161
3797.34341	0.10185
3795.41484	0.10204
3793.48628	0.10253
3791.55771	0.10331
3789.62915	0.10460
3787.70059	0.10622
3785.77202	0.10820
3783.84346	0.11012
3781.91489	0.11123
3779.98633	0.11234
3778.05776	0.11417
3776.12920	0.11575
3774.20063	0.11694
3772.27207	0.11831
3770.34351	0.12034
3768.41494	0.12295
3766.48638	0.12496
3764.55781	0.12653
3762.62925	0.12817
3760.70068	0.13006
3758.77212	0.13260
3756.84355	0.13525
3754.91499	0.13746
3752.98643	0.14013
3751.05786	0.14445
3749.12930	0.14975
3747.20073	0.15268
3745.27217	0.15462
3743.34360	0.15852
3741.41504	0.16239
3739.48647	0.16487
3737.55791	0.16825
3735.62935	0.17419
3733.70078	0.18161
3731.77222	0.18717
3729.84365	0.19109
3727.91509	0.19502
3725.98652	0.20061
3724.05796	0.20764
3722.12939	0.21427
3720.20083	0.22026
3718.27227	0.22607
3716.34370	0.23222
3714.41514	0.23892
3712.48657	0.24807
3710.55801	0.26252
3708.62944	0.27780
3706.70088	0.28903
3704.77231	0.29954
3702.84375	0.31234
3700.91519	0.32924
3698.98662	0.34788
3697.05806	0.36538
3695.12949	0.38346
3693.20093	0.40242
3691.27236	0.42330
3689.34380	0.45075
3687.41523	0.48506
3685.48667	0.51573
3683.55811	0.54186
3681.62954	0.56927
3679.70098	0.60004
3677.77241	0.63278
3675.84385	0.67207
3673.91528	0.72518
3671.98672	0.76823
3670.05815	0.80620
3668.12959	0.85918
3666.20103	0.90755
3664.27246	0.94760
3662.34390	0.99103
3660.41533	1.03833
3658.48677	1.08450
3656.55820	1.13317
3654.62964	1.18808
3652.70107	1.23487
3650.77251	1.27584
3648.84395	1.33216
3646.91538	1.40025
3644.98682	1.44983
3643.05825	1.48869
3641.12969	1.52918
3639.20112	1.57399
3637.27256	1.61906
3635.34399	1.66300
3633.41543	1.70717
3631.48687	1.74860
3629.55830	1.79018
3627.62974	1.84407
3625.70117	1.89525
3623.77261	1.93039
3621.84404	1.96287
3619.91548	1.99912
3617.98691	2.04433
3616.05835	2.08869
3614.12979	2.12461
3612.20122	2.16226
3610.27266	2.20065
3608.34409	2.23952
3606.41553	2.28220
3604.48696	2.32244
3602.55840	2.35817
3600.62983	2.39720
3598.70127	2.43941
3596.77271	2.47945
3594.84414	2.52054
3592.91558	2.56307
3590.98701	2.60123
3589.05845	2.63706
3587.12988	2.68253
3585.20132	2.73219
3583.27275	2.77141
3581.34419	2.80654
3579.41562	2.84527
3577.48706	2.88745
3575.55850	2.92987
3573.62993	2.97315
3571.70137	3.01568
3569.77280	3.05564
3567.84424	3.09726
3565.91567	3.14961
3563.98711	3.20259
3562.05854	3.24546
3560.12998	3.28673
3558.20142	3.33169
3556.27285	3.37941
3554.34429	3.42552
3552.41572	3.47124
3550.48716	3.51678
3548.55859	3.55983
3546.63003	3.60513
3544.70146	3.65667
3542.77290	3.70611
3540.84434	3.74965
3538.91577	3.79346
3536.98721	3.83942
3535.05864	3.88859
3533.13008	3.93751
3531.20151	3.98223
3529.27295	4.02648
3527.34438	4.07711
3525.41582	4.13157
3523.48726	4.18105
3521.55869	4.22378
3519.63013	4.26569
3517.70156	4.31338
3515.77300	4.36304
3513.84443	4.41286
3511.91587	4.46439
3509.98730	4.51508
3508.05874	4.56624
3506.13018	4.61398
3504.20161	4.65522
3502.27305	4.69840
3500.34448	4.74342
3498.41592	4.78422
3496.48735	4.82582
3494.55879	4.87704
3492.63022	4.93685
3490.70166	4.99122
3488.77310	5.03814
3486.84453	5.08651
3484.91597	5.13286
3482.98740	5.17806
3481.05884	5.23200
3479.13027	5.28789
3477.20171	5.33371
3475.27314	5.37463
3473.34458	5.42294
3471.41602	5.47483
3469.48745	5.51823
3467.55889	5.56168
3465.63032	5.61286
3463.70176	5.66130
3461.77319	5.69947
3459.84463	5.74016
3457.91606	5.79316
3455.98750	5.84934
3454.05894	5.90096
3452.13037	5.94761
3450.20181	5.99498
3448.27324	6.04973
3446.34468	6.10850
3444.41611	6.15896
3442.48755	6.20672
3440.55898	6.25995
3438.63042	6.30871
3436.70186	6.34465
3434.77329	6.37969
3432.84473	6.42235
3430.91616	6.46187
3428.98760	6.49843
3427.05903	6.54930
3425.13047	6.62758
3423.20190	6.70261
3421.27334	6.76140
3419.34478	6.82987
3417.41621	6.89570
3415.48765	6.92956
3413.55908	6.95170
3411.63052	6.99545
3409.70195	7.04397
3407.77339	7.09873
3405.84482	7.13641
3403.91626	7.14550
3401.98770	7.18941
3400.05913	7.26615
3398.13057	7.31013
3396.20200	7.31798
3394.27344	7.33760
3392.34487	7.37541
3390.41631	7.42773
3388.48774	7.46400
3386.55918	7.47318
3384.63062	7.48759
3382.70205	7.50691
3380.77349	7.51906
3378.84492	7.53557
3376.91636	7.58126
3374.98779	7.65010
3373.05923	7.72182
3371.13066	7.74014
3369.20210	7.71931
3367.27354	7.76703
3365.34497	7.86969
3363.41641	7.90959
3361.48784	7.93257
3359.55928	7.99416
3357.63071	7.98178
3355.70215	7.93710
3353.77358	7.94135
3351.84502	7.96284
3349.91646	8.01733
3347.98789	8.11874
3346.05933	8.13874
3344.13076	8.07193
3342.20220	8.11326
3340.27363	8.20023
3338.34507	8.16498
3336.41650	8.09355
3334.48794	8.08553
3332.55937	8.11091
3330.63081	8.09904
3328.70225	7.99639
3326.77368	7.89680
3324.84512	7.93650
3322.91655	8.07713
3320.98799	8.18547
3319.05942	8.20348
3317.13086	8.20317
3315.20229	8.26007
3313.27373	8.30418
3311.34517	8.26086
3309.41660	8.21673
3307.48804	8.12941
3305.55947	7.96432
3303.63091	7.90027
3301.70234	7.95747
3299.77378	8.02389
3297.84521	8.10988
3295.91665	8.24437
3293.98809	8.30717
3292.05952	8.24263
3290.13096	8.15822
3288.20239	8.16156
3286.27383	8.22983
3284.34526	8.24332
3282.41670	8.21698
3280.48813	8.21060
3278.55957	8.25381
3276.63101	8.27784
3274.70244	8.19008
3272.77388	8.09594
3270.84531	8.05767
3268.91675	8.04575
3266.98818	8.09376
3265.05962	8.24033
3263.13105	8.44648
3261.20249	8.56585
3259.27393	8.45208
3257.34536	8.26811
3255.41680	8.20729
3253.48823	8.25359
3251.55967	8.27133
3249.63110	8.21070
3247.70254	8.16193
3245.77397	8.14431
3243.84541	8.13882
3241.91685	8.15478
3239.98828	8.22439
3238.05972	8.33534
3236.13115	8.34337
3234.20259	8.19366
3232.27402	8.04001
3230.34546	7.95086
3228.41689	7.91981
3226.48833	7.96711
3224.55977	8.02117
3222.63120	7.99937
3220.70264	7.95779
3218.77407	7.94019
3216.84551	7.91319
3214.91694	7.89391
3212.98838	7.92632
3211.05981	7.97097
3209.13125	7.95974
3207.20269	7.93246
3205.27412	7.93167
3203.34556	7.86729
3201.41699	7.75184
3199.48843	7.68482
3197.55986	7.64419
3195.63130	7.59783
3193.70273	7.55980
3191.77417	7.52736
3189.84561	7.49723
3187.91704	7.47315
3185.98848	7.44819
3184.05991	7.39246
3182.13135	7.29598
3180.20278	7.21363
3178.27422	7.17440
3176.34565	7.14168
3174.41709	7.10083
3172.48853	7.06516
3170.55996	7.00336
3168.63140	6.90981
3166.70283	6.83563
3164.77427	6.78014
3162.84570	6.71071
3160.91714	6.63293
3158.98857	6.55629
3157.06001	6.47338
3155.13145	6.38952
3153.20288	6.31707
3151.27432	6.26426
3149.34575	6.23087
3147.41719	6.19863
3145.48862	6.14465
3143.56006	6.07388
3141.63149	6.00392
3139.70293	5.92582
3137.77437	5.84134
3135.84580	5.76574
3133.91724	5.69332
3131.98867	5.61743
3130.06011	5.54046
3128.13154	5.46519
3126.20298	5.39477
3124.27441	5.32898
3122.34585	5.26490
3120.41729	5.20072
3118.48872	5.13229
3116.56016	5.06108
3114.63159	4.99107
3112.70303	4.92161
3110.77446	4.85160
3108.84590	4.77894
3106.91733	4.70500
3104.98877	4.63526
3103.06021	4.57352
3101.13164	4.51466
3099.20308	4.44939
3097.27451	4.37994
3095.34595	4.31608
3093.41738	4.25849
3091.48882	4.20017
3089.56025	4.13869
3087.63169	4.07601
3085.70312	4.01384
3083.77456	3.95127
3081.84600	3.88895
3079.91743	3.82955
3077.98887	3.77308
3076.06030	3.71779
3074.13174	3.66212
3072.20317	3.60639
3070.27461	3.55028
3068.34604	3.49303
3066.41748	3.43657
3064.48892	3.38156
3062.56035	3.32738
3060.63179	3.27382
3058.70322	3.22022
3056.77466	3.16776
3054.84609	3.11755
3052.91753	3.06804
3050.98896	3.01795
3049.06040	2.96786
3047.13184	2.91902
3045.20327	2.87055
3043.27471	2.82142
3041.34614	2.77366
3039.41758	2.72860
3037.48901	2.68423
3035.56045	2.63917
3033.63188	2.59451
3031.70332	2.55081
3029.77476	2.50772
3027.84619	2.46515
3025.91763	2.42310
3023.98906	2.38168
3022.06050	2.34034
3020.13193	2.29871
3018.20337	2.25772
3016.27480	2.21808
3014.34624	2.17985
3012.41768	2.14267
3010.48911	2.10562
3008.56055	2.06842
3006.63198	2.03180
3004.70342	1.99680
3002.77485	1.96313
3000.84629	1.92983
2998.91772	1.89730
2996.98916	1.86584
2995.06060	1.83505
2993.13203	1.80502
2991.20347	1.77569
2989.27490	1.74667
2987.34634	1.71783
2985.41777	1.68986
2983.48921	1.66322
2981.56064	1.63697
2979.63208	1.61078
2977.70352	1.58541
2975.77495	1.56087
2973.84639	1.53672
2971.91782	1.51303
2969.98926	1.49011
2968.06069	1.46783
2966.13213	1.44556
2964.20356	1.42298
2962.27500	1.40019
2960.34644	1.37743
2958.41787	1.35460
2956.48931	1.33133
2954.56074	1.30800
2952.63218	1.28514
2950.70361	1.26269
2948.77505	1.24057
2946.84648	1.21902
2944.91792	1.19834
2942.98936	1.17830
2941.06079	1.15859
2939.13223	1.13898
2937.20366	1.11932
2935.27510	1.09981
2933.34653	1.08045
2931.41797	1.06125
2929.48940	1.04230
2927.56084	1.02341
2925.63228	1.00477
2923.70371	0.98682
2921.77515	0.96916
2919.84658	0.95154
2917.91802	0.93456
2915.98945	0.91820
2914.06089	0.90189
2912.13232	0.88564
2910.20376	0.86974
2908.27520	0.85448
2906.34663	0.83959
2904.41807	0.82454
2902.48950	0.80978
2900.56094	0.79599
2898.63237	0.78289
2896.70381	0.76982
2894.77524	0.75671
2892.84668	0.74414
2890.91812	0.73246
2888.98955	0.72139
2887.06099	0.71051
2885.13242	0.69998
2883.20386	0.69015
2881.27529	0.68085
2879.34673	0.67165
2877.41816	0.66240
2875.48960	0.65291
2873.56104	0.64291
2871.63247	0.63237
2869.70391	0.62140
2867.77534	0.61003
2865.84678	0.59827
2863.91821	0.58649
2861.98965	0.57494
2860.06108	0.56376
2858.13252	0.55328
2856.20396	0.54347
2854.27539	0.53389
2852.34683	0.52448
2850.41826	0.51559
2848.48970	0.50708
2846.56113	0.49861
2844.63257	0.49057
2842.70400	0.48332
2840.77544	0.47663
2838.84687	0.47024
2836.91831	0.46410
2834.98975	0.45803
2833.06118	0.45177
2831.13262	0.44536
2829.20405	0.43907
2827.27549	0.43305
2825.34692	0.42724
2823.41836	0.42134
2821.48979	0.41525
2819.56123	0.40924
2817.63267	0.40353
2815.70410	0.39789
2813.77554	0.39220
2811.84697	0.38672
2809.91841	0.38135
2807.98984	0.37584
2806.06128	0.37032
2804.13271	0.36503
2802.20415	0.36003
2800.27559	0.35511
2798.34702	0.35029
2796.41846	0.34565
2794.48989	0.34107
2792.56133	0.33643
2790.63276	0.33183
2788.70420	0.32725
2786.77563	0.32257
2784.84707	0.31797
2782.91851	0.31380
2780.98994	0.30990
2779.06138	0.30595
2777.13281	0.30198
2775.20425	0.29806
2773.27568	0.29418
2771.34712	0.29035
2769.41855	0.28661
2767.48999	0.28299
2765.56143	0.27954
2763.63286	0.27620
2761.70430	0.27278
2759.77573	0.26934
2757.84717	0.26600
2755.91860	0.26272
2753.99004	0.25958
2752.06147	0.25659
2750.13291	0.25363
2748.20435	0.25065
2746.27578	0.24769
2744.34722	0.24476
2742.41865	0.24196
2740.49009	0.23930
2738.56152	0.23666
2736.63296	0.23406
2734.70439	0.23158
2732.77583	0.22914
2730.84727	0.22662
2728.91870	0.22420
2726.99014	0.22202
2725.06157	0.21983
2723.13301	0.21754
2721.20444	0.21536
2719.27588	0.21331
2717.34731	0.21120
2715.41875	0.20913
2713.49019	0.20726
2711.56162	0.20548
2709.63306	0.20367
2707.70449	0.20187
2705.77593	0.20018
2703.84736	0.19855
2701.91880	0.19690
2699.99023	0.19536
2698.06167	0.19390
2696.13311	0.19237
2694.20454	0.19084
2692.27598	0.18956
2690.34741	0.18844
2688.41885	0.18723
2686.49028	0.18584
2684.56172	0.18437
2682.63315	0.18302
2680.70459	0.18187
2678.77603	0.18071
2676.84746	0.17946
2674.91890	0.17831
2672.99033	0.17730
2671.06177	0.17633
2669.13320	0.17526
2667.20464	0.17417
2665.27607	0.17307
2663.34751	0.17191
2661.41895	0.17085
2659.49038	0.17001
2657.56182	0.16926
2655.63325	0.16847
2653.70469	0.16777
2651.77612	0.16715
2649.84756	0.16632
2647.91899	0.16534
2645.99043	0.16457
2644.06187	0.16408
2642.13330	0.16359
2640.20474	0.16291
2638.27617	0.16214
2636.34761	0.16145
2634.41904	0.16086
2632.49048	0.16038
2630.56191	0.16008
2628.63335	0.15980
2626.70479	0.15936
2624.77622	0.15887
2622.84766	0.15842
2620.91909	0.15807
2618.99053	0.15780
2617.06196	0.15755
2615.13340	0.15733
2613.20483	0.15703
2611.27627	0.15664
2609.34771	0.15636
2607.41914	0.15625
2605.49058	0.15623
2603.56201	0.15619
2601.63345	0.15614
2599.70488	0.15604
2597.77632	0.15583
2595.84775	0.15576
2593.91919	0.15589
2591.99062	0.15597
2590.06206	0.15590
2588.13350	0.15591
2586.20493	0.15619
2584.27637	0.15652
2582.34780	0.15670
2580.41924	0.15677
2578.49067	0.15684
2576.56211	0.15696
2574.63354	0.15716
2572.70498	0.15743
2570.77642	0.15770
2568.84785	0.15794
2566.91929	0.15826
2564.99072	0.15862
2563.06216	0.15904
2561.13359	0.15961
2559.20503	0.16012
2557.27646	0.16043
2555.34790	0.16081
2553.41934	0.16133
2551.49077	0.16172
2549.56221	0.16199
2547.63364	0.16239
2545.70508	0.16290
2543.77651	0.16340
2541.84795	0.16390
2539.91938	0.16442
2537.99082	0.16490
2536.06226	0.16541
2534.13369	0.16609
2532.20513	0.16675
2530.27656	0.16727
2528.34800	0.16790
2526.41943	0.16860
2524.49087	0.16924
2522.56230	0.16991
2520.63374	0.17065
2518.70518	0.17139
2516.77661	0.17199
2514.84805	0.17253
2512.91948	0.17331
2510.99092	0.17431
2509.06235	0.17513
2507.13379	0.17568
2505.20522	0.17622
2503.27666	0.17698
2501.34810	0.17783
2499.41953	0.17854
2497.49097	0.17924
2495.56240	0.18010
2493.63384	0.18090
2491.70527	0.18142
2489.77671	0.18184
2487.84814	0.18259
2485.91958	0.18364
2483.99102	0.18453
2482.06245	0.18520
2480.13389	0.18588
2478.20532	0.18670
2476.27676	0.18758
2474.34819	0.18846
2472.41963	0.18935
2470.49106	0.19023
2468.56250	0.19108
2466.63394	0.19179
2464.70537	0.19244
2462.77681	0.19315
2460.84824	0.19391
2458.91968	0.19474
2456.99111	0.19569
2455.06255	0.19670
2453.13398	0.19757
2451.20542	0.19836
2449.27686	0.19927
2447.34829	0.20026
2445.41973	0.20125
2443.49116	0.20232
2441.56260	0.20341
2439.63403	0.20441
2437.70547	0.20530
2435.77690	0.20624
2433.84834	0.20732
2431.91978	0.20842
2429.99121	0.20941
2428.06265	0.21027
2426.13408	0.21107
2424.20552	0.21196
2422.27695	0.21301
2420.34839	0.21408
2418.41982	0.21522
2416.49126	0.21642
2414.56270	0.21751
2412.63413	0.21848
2410.70557	0.21947
2408.77700	0.22058
2406.84844	0.22184
2404.91987	0.22317
2402.99131	0.22431
2401.06274	0.22526
2399.13418	0.22631
2397.20562	0.22755
2395.27705	0.22879
2393.34849	0.22998
2391.41992	0.23116
2389.49136	0.23234
2387.56279	0.23385
2385.63423	0.23616
2383.70566	0.23945
2381.77710	0.24356
2379.84854	0.24833
2377.91997	0.25368
2375.99141	0.25969
2374.06284	0.26638
2372.13428	0.27380
2370.20571	0.28180
2368.27715	0.28952
2366.34858	0.29671
2364.42002	0.30362
2362.49146	0.30977
2360.56289	0.31525
2358.63433	0.31818
2356.70576	0.31628
2354.77720	0.31147
2352.84863	0.30521
2350.92007	0.29847
2348.99150	0.29465
2347.06294	0.29550
2345.13437	0.30119
2343.20581	0.30928
2341.27725	0.31492
2339.34868	0.31722
2337.42012	0.31761
2335.49155	0.31758
2333.56299	0.31765
2331.63442	0.31773
2329.70586	0.31828
2327.77729	0.31889
2325.84873	0.31821
2323.92017	0.31661
2321.99160	0.31471
2320.06304	0.31266
2318.13447	0.31118
2316.20591	0.31034
2314.27734	0.30990
2312.34878	0.31003
2310.42021	0.31052
2308.49165	0.31063
2306.56309	0.31013
2304.63452	0.30972
2302.70596	0.31010
2300.77739	0.31103
2298.84883	0.31195
2296.92026	0.31288
2294.99170	0.31388
2293.06313	0.31480
2291.13457	0.31561
2289.20601	0.31641
2287.27744	0.31731
2285.34888	0.31836
2283.42031	0.31966
2281.49175	0.32142
2279.56318	0.32366
2277.63462	0.32604
2275.70605	0.32831
2273.77749	0.33052
2271.84893	0.33270
2269.92036	0.33466
2267.99180	0.33649
2266.06323	0.33832
2264.13467	0.34017
2262.20610	0.34212
2260.27754	0.34410
2258.34897	0.34599
2256.42041	0.34784
2254.49185	0.34976
2252.56328	0.35176
2250.63472	0.35384
2248.70615	0.35588
2246.77759	0.35778
2244.84902	0.35971
2242.92046	0.36178
2240.99189	0.36384
2239.06333	0.36584
2237.13477	0.36790
2235.20620	0.37014
2233.27764	0.37248
2231.34907	0.37469
2229.42051	0.37676
2227.49194	0.37885
2225.56338	0.38098
2223.63481	0.38318
2221.70625	0.38543
2219.77769	0.38764
2217.84912	0.38980
2215.92056	0.39195
2213.99199	0.39404
2212.06343	0.39604
2210.13486	0.39806
2208.20630	0.40015
2206.27773	0.40235
2204.34917	0.40452
2202.42061	0.40652
2200.49204	0.40848
2198.56348	0.41050
2196.63491	0.41241
2194.70635	0.41422
2192.77778	0.41602
2190.84922	0.41783
2188.92065	0.41967
2186.99209	0.42157
2185.06353	0.42341
2183.13496	0.42503
2181.20640	0.42646
2179.27783	0.42798
2177.34927	0.42968
2175.42070	0.43140
2173.49214	0.43301
2171.56357	0.43456
2169.63501	0.43604
2167.70645	0.43730
2165.77788	0.43835
2163.84932	0.43939
2161.92075	0.44054
2159.99219	0.44169
2158.06362	0.44273
2156.13506	0.44371
2154.20649	0.44463
2152.27793	0.44542
2150.34937	0.44607
2148.42080	0.44670
2146.49224	0.44738
2144.56367	0.44795
2142.63511	0.44833
2140.70654	0.44872
2138.77798	0.44918
2136.84941	0.44941
2134.92085	0.44940
2132.99229	0.44945
2131.06372	0.44951
2129.13516	0.44939
2127.20659	0.44913
2125.27803	0.44885
2123.34946	0.44851
2121.42090	0.44803
2119.49233	0.44749
2117.56377	0.44698
2115.63521	0.44649
2113.70664	0.44584
2111.77808	0.44496
2109.84951	0.44398
2107.92095	0.44296
2105.99238	0.44185
2104.06382	0.44073
2102.13525	0.43965
2100.20669	0.43848
2098.27812	0.43706
2096.34956	0.43556
2094.42100	0.43413
2092.49243	0.43263
2090.56387	0.43105
2088.63530	0.42943
2086.70674	0.42777
2084.77817	0.42602
2082.84961	0.42419
2080.92104	0.42224
2078.99248	0.42023
2077.06392	0.41824
2075.13535	0.41623
2073.20679	0.41417
2071.27822	0.41206
2069.34966	0.40991
2067.42109	0.40778
2065.49253	0.40565
2063.56396	0.40339
2061.63540	0.40097
2059.70684	0.39842
2057.77827	0.39583
2055.84971	0.39328
2053.92114	0.39077
2051.99258	0.38829
2050.06401	0.38586
2048.13545	0.38348
2046.20688	0.38103
2044.27832	0.37849
2042.34976	0.37587
2040.42119	0.37316
2038.49263	0.37050
2036.56406	0.36793
2034.63550	0.36527
2032.70693	0.36246
2030.77837	0.35972
2028.84980	0.35708
2026.92124	0.35441
2024.99268	0.35170
2023.06411	0.34902
2021.13555	0.34633
2019.20698	0.34366
2017.27842	0.34102
2015.34985	0.33823
2013.42129	0.33544
2011.49272	0.33278
2009.56416	0.33016
2007.63560	0.32751
2005.70703	0.32489
2003.77847	0.32227
2001.84990	0.31963
1999.92134	0.31698
1997.99277	0.31437
1996.06421	0.31190
1994.13564	0.30958
1992.20708	0.30718
1990.27852	0.30452
1988.34995	0.30189
1986.42139	0.29945
1984.49282	0.29713
1982.56426	0.29489
1980.63569	0.29271
1978.70713	0.29057
1976.77856	0.28841
1974.85000	0.28618
1972.92144	0.28397
1970.99287	0.28190
1969.06431	0.27990
1967.13574	0.27791
1965.20718	0.27590
1963.27861	0.27386
1961.35005	0.27188
1959.42148	0.27001
1957.49292	0.26822
1955.56436	0.26644
1953.63579	0.26468
1951.70723	0.26303
1949.77866	0.26145
1947.85010	0.25982
1945.92153	0.25826
1943.99297	0.25695
1942.06440	0.25567
1940.13584	0.25413
1938.20728	0.25251
1936.27871	0.25102
1934.35015	0.24960
1932.42158	0.24831
1930.49302	0.24722
1928.56445	0.24626
1926.63589	0.24527
1924.70732	0.24433
1922.77876	0.24342
1920.85020	0.24246
1918.92163	0.24159
1916.99307	0.24073
1915.06450	0.23969
1913.13594	0.23869
1911.20737	0.23799
1909.27881	0.23738
1907.35024	0.23663
1905.42168	0.23576
1903.49312	0.23503
1901.56455	0.23449
1899.63599	0.23405
1897.70742	0.23375
1895.77886	0.23353
1893.85029	0.23317
1891.92173	0.23266
1889.99316	0.23240
1888.06460	0.23222
1886.13604	0.23187
1884.20747	0.23155
1882.27891	0.23142
1880.35034	0.23141
1878.42178	0.23134
1876.49321	0.23125
1874.56465	0.23122
1872.63608	0.23132
1870.70752	0.23153
1868.77896	0.23197
1866.85039	0.23222
1864.92183	0.23200
1862.99326	0.23187
1861.06470	0.23208
1859.13613	0.23254
1857.20757	0.23298
1855.27900	0.23341
1853.35044	0.23377
1851.42187	0.23419
1849.49331	0.23482
1847.56475	0.23561
1845.63618	0.23654
1843.70762	0.23758
1841.77905	0.23822
1839.85049	0.23855
1837.92192	0.23925
1835.99336	0.24012
1834.06479	0.24094
1832.13623	0.24185
1830.20767	0.24329
1828.27910	0.24482
1826.35054	0.24584
1824.42197	0.24707
1822.49341	0.24834
1820.56484	0.24954
1818.63628	0.25088
1816.70771	0.25244
1814.77915	0.25395
1812.85059	0.25559
1810.92202	0.25763
1808.99346	0.25982
1807.06489	0.26177
1805.13633	0.26355
1803.20776	0.26568
1801.27920	0.26824
1799.35063	0.27105
1797.42207	0.27346
1795.49351	0.27573
1793.56494	0.27843
1791.63638	0.28196
1789.70781	0.28533
1787.77925	0.28781
1785.85068	0.29082
1783.92212	0.29450
1781.99355	0.29843
1780.06499	0.30251
1778.13643	0.30668
1776.20786	0.31055
1774.27930	0.31473
1772.35073	0.32047
1770.42217	0.32667
1768.49360	0.33188
1766.56504	0.33685
1764.63647	0.34189
1762.70791	0.34753
1760.77935	0.35492
1758.85078	0.36188
1756.92222	0.36876
1754.99365	0.37631
1753.06509	0.38323
1751.13652	0.39150
1749.20796	0.40205
1747.27939	0.41247
1745.35083	0.42134
1743.42227	0.43048
1741.49370	0.44055
1739.56514	0.45278
1737.63657	0.46525
1735.70801	0.47609
1733.77944	0.49231
1731.85088	0.51168
1729.92231	0.52672
1727.99375	0.54193
1726.06519	0.55838
1724.13662	0.57641
1722.20806	0.59593
1720.27949	0.61380
1718.35093	0.63453
1716.42236	0.66594
1714.49380	0.69658
1712.56523	0.72118
1710.63667	0.74470
1708.70811	0.77005
1706.77954	0.79904
1704.85098	0.83402
1702.92241	0.86546
1700.99385	0.89671
1699.06528	0.94343
1697.13672	0.98672
1695.20815	1.03153
1693.27959	1.07518
1691.35103	1.11082
1689.42246	1.15273
1687.49390	1.19728
1685.56533	1.23980
1683.63677	1.30592
1681.70820	1.37624
1679.77964	1.42162
1677.85107	1.46428
1675.92251	1.51328
1673.99395	1.57419
1672.06538	1.62862
1670.13682	1.68293
1668.20825	1.75442
1666.27969	1.81315
1664.35112	1.86422
1662.42256	1.93035
1660.49399	2.00620
1658.56543	2.06509
1656.63687	2.11125
1654.70830	2.15229
1652.77974	2.21526
1650.85117	2.27447
1648.92261	2.29454
1646.99404	2.31707
1645.06548	2.34016
1643.13691	2.35746
1641.20835	2.36650
1639.27979	2.37126
1637.35122	2.37163
1635.42266	2.36738
1633.49409	2.35684
1631.56553	2.34016
1629.63696	2.31921
1627.70840	2.28594
1625.77983	2.24897
1623.85127	2.20450
1621.92271	2.14926
1619.99414	2.09948
1618.06558	2.05125
1616.13701	1.98292
1614.20845	1.91416
1612.27988	1.86186
1610.35132	1.80714
1608.42275	1.74852
1606.49419	1.69130
1604.56562	1.63858
1602.63706	1.58850
1600.70850	1.54052
1598.77993	1.49645
1596.85137	1.45495
1594.92280	1.41446
1592.99424	1.37574
1591.06567	1.34137
1589.13711	1.30998
1587.20854	1.28099
1585.27998	1.25440
1583.35142	1.22998
1581.42285	1.20824
1579.49429	1.19024
1577.56572	1.17500
1575.63716	1.15715
1573.70859	1.14117
1571.78003	1.13126
1569.85146	1.12266
1567.92290	1.11412
1565.99434	1.10850
1564.06577	1.10561
1562.13721	1.10444
1560.20864	1.10619
1558.28008	1.11548
1556.35151	1.12463
1554.42295	1.12906
1552.49438	1.13332
1550.56582	1.13579
1548.63726	1.13530
1546.70869	1.13144
1544.78013	1.12345
1542.85156	1.11113
1540.92300	1.09152
1538.99443	1.05929
1537.06587	1.03515
1535.13730	1.01855
1533.20874	0.99600
1531.28018	0.97166
1529.35161	0.95419
1527.42305	0.93777
1525.49448	0.92052
1523.56592	0.90613
1521.63735	0.89293
1519.70879	0.87959
1517.78022	0.86824
1515.85166	0.85503
1513.92310	0.84106
1511.99453	0.82872
1510.06597	0.81730
1508.13740	0.80582
1506.20884	0.78822
1504.28027	0.77382
1502.35171	0.76603
1500.42314	0.75903
1498.49458	0.75153
1496.56602	0.74283
1494.63745	0.73408
1492.70889	0.72737
1490.78032	0.72153
1488.85176	0.71470
1486.92319	0.70823
1484.99463	0.70325
1483.06606	0.69953
1481.13750	0.69675
1479.20894	0.69483
1477.28037	0.69394
1475.35181	0.69414
1473.42324	0.69530
1471.49468	0.69588
1469.56611	0.69469
1467.63755	0.69284
1465.70898	0.69140
1463.78042	0.69063
1461.85186	0.69029
1459.92329	0.69058
1457.99473	0.69194
1456.06616	0.69306
1454.13760	0.69159
1452.20903	0.68918
1450.28047	0.68664
1448.35190	0.68406
1446.42334	0.68131
1444.49478	0.67862
1442.56621	0.67600
1440.63765	0.67311
1438.70908	0.67000
1436.78052	0.66631
1434.85195	0.66231
1432.92339	0.65923
1430.99482	0.65716
1429.06626	0.65607
1427.13770	0.65601
1425.20913	0.65668
1423.28057	0.65785
1421.35200	0.65903
1419.42344	0.66009
1417.49487	0.66053
1415.56631	0.65984
1413.63774	0.65915
1411.70918	0.65932
1409.78062	0.66060
1407.85205	0.66264
1405.92349	0.66502
1403.99492	0.66717
1402.06636	0.66817
1400.13779	0.66800
1398.20923	0.66666
1396.28066	0.66402
1394.35210	0.65996
1392.42354	0.65508
1390.49497	0.65035
1388.56641	0.64547
1386.63784	0.63977
1384.70928	0.63378
1382.78071	0.62818
1380.85215	0.62295
1378.92358	0.61862
1376.99502	0.61561
1375.06646	0.61363
1373.13789	0.61220
1371.20933	0.61135
1369.28076	0.61078
1367.35220	0.60966
1365.42363	0.60797
1363.49507	0.60630
1361.56650	0.60465
1359.63794	0.60287
1357.70937	0.60125
1355.78081	0.59990
1353.85225	0.59873
1351.92368	0.59775
1349.99512	0.59702
1348.06655	0.59635
1346.13799	0.59547
1344.20942	0.59448
1342.28086	0.59374
1340.35229	0.59334
1338.42373	0.59293
1336.49517	0.59236
1334.56660	0.59195
1332.63804	0.59196
1330.70947	0.59235
1328.78091	0.59301
1326.85234	0.59383
1324.92378	0.59482
1322.99521	0.59605
1321.06665	0.59728
1319.13809	0.59828
1317.20952	0.59884
1315.28096	0.59895
1313.35239	0.59877
1311.42383	0.59836
1309.49526	0.59772
1307.56670	0.59710
1305.63813	0.59669
1303.70957	0.59627
1301.78101	0.59556
1299.85244	0.59459
1297.92388	0.59358
1295.99531	0.59242
1294.06675	0.59109
1292.13818	0.58969
1290.20962	0.58833
1288.28105	0.58709
1286.35249	0.58576
1284.42393	0.58420
1282.49536	0.58262
1280.56680	0.58112
1278.63823	0.57967
1276.70967	0.57821
1274.78110	0.57678
1272.85254	0.57563
1270.92397	0.57481
1268.99541	0.57412
1267.06685	0.57346
1265.13828	0.57258
1263.20972	0.57149
1261.28115	0.57055
1259.35259	0.56982
1257.42402	0.56910
1255.49546	0.56848
1253.56689	0.56818
1251.63833	0.56819
1249.70977	0.56841
1247.78120	0.56855
1245.85264	0.56828
1243.92407	0.56759
1241.99551	0.56653
1240.06694	0.56508
1238.13838	0.56319
1236.20981	0.56086
1234.28125	0.55825
1232.35269	0.55565
1230.42412	0.55301
1228.49556	0.55033
1226.56699	0.54790
1224.63843	0.54588
1222.70986	0.54409
1220.78130	0.54234
1218.85273	0.54060
1216.92417	0.53902
1214.99561	0.53767
1213.06704	0.53665
1211.13848	0.53601
1209.20991	0.53545
1207.28135	0.53471
1205.35278	0.53388
1203.42422	0.53310
1201.49565	0.53224
1199.56709	0.53118
1197.63853	0.53003
1195.70996	0.52901
1193.78140	0.52823
1191.85283	0.52759
1189.92427	0.52705
1187.99570	0.52667
1186.06714	0.52651
1184.13857	0.52666
1182.21001	0.52720
1180.28145	0.52827
1178.35288	0.52978
1176.42432	0.53131
1174.49575	0.53274
1172.56719	0.53385
1170.63862	0.53435
1168.71006	0.53440
1166.78149	0.53432
1164.85293	0.53431
1162.92437	0.53442
1160.99580	0.53461
1159.06724	0.53464
1157.13867	0.53420
1155.21011	0.53334
1153.28154	0.53215
1151.35298	0.53052
1149.42441	0.52847
1147.49585	0.52602
1145.56729	0.52319
1143.63872	0.52032
1141.71016	0.51783
1139.78159	0.51589
1137.85303	0.51469
1135.92446	0.51434
1133.99590	0.51447
1132.06733	0.51471
1130.13877	0.51499
1128.21021	0.51527
1126.28164	0.51531
1124.35308	0.51507
1122.42451	0.51493
1120.49595	0.51516
1118.56738	0.51555
1116.63882	0.51605
1114.71025	0.51679
1112.78169	0.51771
1110.85312	0.51868
1108.92456	0.51978
1106.99600	0.52088
1105.06743	0.52175
1103.13887	0.52256
1101.21030	0.52344
1099.28174	0.52454
1097.35317	0.52620
1095.42461	0.52882
1093.49604	0.53254
1091.56748	0.53731
1089.63892	0.54328
1087.71035	0.55072
1085.78179	0.55938
1083.85322	0.56815
1081.92466	0.57553
1079.99609	0.58070
1078.06753	0.58343
1076.13896	0.58314
1074.21040	0.57945
1072.28184	0.57326
1070.35327	0.56611
1068.42471	0.55905
1066.49614	0.55234
1064.56758	0.54606
1062.63901	0.54054
1060.71045	0.53592
1058.78188	0.53195
1056.85332	0.52817
1054.92476	0.52433
1052.99619	0.52082
1051.06763	0.51813
1049.13906	0.51634
1047.21050	0.51528
1045.28193	0.51491
1043.35337	0.51508
1041.42480	0.51525
1039.49624	0.51527
1037.56768	0.51529
1035.63911	0.51503
1033.71055	0.51424
1031.78198	0.51308
1029.85342	0.51155
1027.92485	0.50951
1025.99629	0.50740
1024.06772	0.50580
1022.13916	0.50467
1020.21060	0.50387
1018.28203	0.50334
1016.35347	0.50292
1014.42490	0.50249
1012.49634	0.50206
1010.56777	0.50165
1008.63921	0.50122
1006.71064	0.50105
1004.78208	0.50167
1002.85352	0.50335
1000.92495	0.50586
998.99639	0.50914
997.06782	0.51325
995.13926	0.51779
993.21069	0.52199
991.28213	0.52528
989.35356	0.52731
987.42500	0.52797
985.49644	0.52774
983.56787	0.52727
981.63931	0.52705
979.71074	0.52730
977.78218	0.52805
975.85361	0.52955
973.92505	0.53186
971.99648	0.53468
970.06792	0.53795
968.13936	0.54160
966.21079	0.54525
964.28223	0.54902
962.35366	0.55328
960.42510	0.55812
958.49653	0.56349
956.56797	0.56914
954.63940	0.57489
952.71084	0.58082
950.78228	0.58703
948.85371	0.59351
946.92515	0.60002
944.99658	0.60637
943.06802	0.61259
941.13945	0.61875
939.21089	0.62455
937.28232	0.63000
935.35376	0.63546
933.42520	0.64126
931.49663	0.64720
929.56807	0.65253
927.63950	0.65768
925.71094	0.66371
923.78237	0.67050
921.85381	0.67717
919.92524	0.68379
917.99668	0.69085
916.06812	0.69800
914.13955	0.70478
912.21099	0.71157
910.28242	0.71893
908.35386	0.72728
906.42529	0.73657
904.49673	0.74579
902.56816	0.75410
900.63960	0.76177
898.71104	0.77002
896.78247	0.78005
894.85391	0.79120
892.92534	0.80208
890.99678	0.81200
889.06821	0.82172
887.13965	0.83336
885.21108	0.84650
883.28252	0.85819
881.35396	0.86803
879.42539	0.87877
877.49683	0.89115
875.56826	0.90340
873.63970	0.91533
871.71113	0.92652
869.78257	0.93597
867.85400	0.94599
865.92544	0.95778
863.99687	0.96861
862.06831	0.97781
860.13975	0.98765
858.21118	1.00022
856.28262	1.01514
854.35405	1.02950
852.42549	1.04217
850.49692	1.05401
848.56836	1.06553
846.63979	1.07697
844.71123	1.08706
842.78267	1.09589
840.85410	1.10650
838.92554	1.11834
836.99697	1.13009
835.06841	1.14289
833.13984	1.15466
831.21128	1.16276
829.28271	1.17093
827.35415	1.18598
825.42559	1.20566
823.49702	1.21891
821.56846	1.22598
819.63989	1.23595
817.71133	1.24751
815.78276	1.25715
813.85420	1.26283
811.92563	1.26964
809.99707	1.28678
808.06851	1.30730
806.13994	1.32110
804.21138	1.32176
802.28281	1.31570
800.35425	1.32730
798.42568	1.36128
796.49712	1.38877
794.56855	1.40969
792.63999	1.45165
790.71143	1.48880
788.78286	1.50090
786.85430	1.51997
784.92573	1.56833
782.99717	1.60792
781.06860	1.57144
779.14004	1.50512
777.21147	1.47241
775.28291	1.48447
773.35435	1.52752
771.42578	1.55669
769.49722	1.49957
767.56865	1.47631
765.64009	1.51781
763.71152	1.48140
761.78296	1.35372
759.85439	1.34231
757.92583	1.50769
755.99727	1.63752
754.06870	1.67416
752.14014	1.78068
750.21157	1.53167
748.28301	1.27248
746.35444	1.17590
744.42588	1.15575
742.49731	1.15523
740.56875	1.15685
738.64019	1.11447
736.71162	0.97535
734.78306	0.82177
732.85449	0.78986
730.92593	0.99240
728.99736	1.88306
727.06880	1.58444
725.14023	1.82254
723.21167	4.33927
721.28311	4.32770
719.35454	0.71655
717.42598	0.40683
715.49741	0.12343
713.56885	0.11278
711.64028	0.17416
709.71172	0.04077
707.78315	0.00793
705.85459	0.27797
703.92603	0.71230
701.99746	0.92711
700.06890	0.48714
698.14033	0.28035
696.21177	0.24562
694.28320	0.26512
692.35464	0.27745
690.42607	0.30820
688.49751	0.37691
686.56895	0.42277
684.64038	0.47114
682.71182	0.61857
680.78325	0.73754
678.85469	0.58178
676.92612	0.39699
674.99756	0.30026
673.06899	0.29464
671.14043	0.31864
669.21187	0.33143
667.28330	0.43058
665.35474	0.61207
663.42617	0.51970
661.49761	0.40364
659.56904	0.29275
657.64048	0.17417
655.71191	0.10939
653.78335	0.08498
651.85479	0.10671
649.92622	0.19710
647.99766	0.28643
646.06909	0.31722
644.14053	0.33303
642.21196	0.37815
640.28340	0.41330
638.35483	0.37281
636.42627	0.33305
634.49771	0.41152
632.56914	0.52434
630.64058	0.48391
628.71201	0.38361
626.78345	0.33157
624.85488	0.32559
622.92632	0.38828
620.99775	0.44096
619.06919	0.39293
617.14062	0.40152
615.21206	0.55199
613.28350	0.78525
611.35493	0.66093
609.42637	0.42644
607.49780	0.34606
605.56924	0.35418
603.64067	0.31041
601.71211	0.25900
599.78354	0.30973
597.85498	0.32899
595.92642	0.22725
593.99785	0.16023
592.06929	0.17676
590.14072	0.27073
588.21216	0.43824
586.28359	0.47945
584.35503	0.33207
582.42646	0.31360
580.49790	0.38225
578.56934	0.40089
576.64077	0.36550
574.71221	0.31193
572.78364	0.27685
570.85508	0.31689
568.92651	0.43066
566.99795	0.48487
565.06938	0.37524
563.14082	0.29031
561.21226	0.26758
559.28369	0.29392
557.35513	0.30803
555.42656	0.27633
553.49800	0.24552
551.56943	0.22438
549.64087	0.25477
547.71230	0.32490
545.78374	0.33880
543.85518	0.34667
541.92661	0.38652
539.99805	0.37817
538.06948	0.33740
536.14092	0.32388
534.21235	0.28639
532.28379	0.23304
530.35522	0.25756
528.42666	0.37721
526.49810	0.41409
524.56953	0.33770
522.64097	0.31388
520.71240	0.31813
518.78384	0.33335
516.85527	0.37435
514.92671	0.38186
512.99814	0.35593
511.06958	0.41262
509.14102	0.46679
507.21245	0.32519
505.28389	0.23583
503.35532	0.23652
501.42676	0.24480
499.49819	0.24277
