3997.91411	0.06775
3995.98555	0.06772
3994.05698	0.06814
3992.12842	0.06867
3990.19985	0.06907
3988.27129	0.06959
3986.34272	0.07016
3984.41416	0.07052
3982.48560	0.07077
3980.55703	0.07089
3978.62847	0.07095
3976.69990	0.07128
3974.77134	0.07182
3972.84277	0.07228
3970.91421	0.07236
3968.98564	0.07220
3967.05708	0.07224
3965.12852	0.07243
3963.19995	0.07262
3961.27139	0.07267
3959.34282	0.07258
3957.41426	0.07247
3955.48569	0.07223
3953.55713	0.07195
3951.62856	0.07207
3949.70000	0.07250
3947.77144	0.07260
3945.84287	0.07231
3943.91431	0.07213
3941.98574	0.07219
3940.05718	0.07221
3938.12861	0.07231
3936.20005	0.07256
3934.27148	0.07284
3932.34292	0.07331
3930.41436	0.07368
3928.48579	0.07366
3926.55723	0.07373
3924.62866	0.07393
3922.70010	0.07358
3920.77153	0.07272
3918.84297	0.07222
3916.91440	0.07242
3914.98584	0.07275
3913.05728	0.07267
3911.12871	0.07249
3909.20015	0.07254
3907.27158	0.07279
3905.34302	0.07290
3903.41445	0.07251
3901.48589	0.07225
3899.55732	0.07280
3897.62876	0.07301
3895.70020	0.07248
3893.77163	0.07233
3891.84307	0.07294
3889.91450	0.07320
3887.98594	0.07241
3886.05737	0.07179
3884.12881	0.07197
3882.20024	0.07220
3880.27168	0.07245
3878.34312	0.07273
3876.41455	0.07256
3874.48599	0.07282
3872.55742	0.07387
3870.62886	0.07503
3868.70029	0.07572
3866.77173	0.07551
3864.84316	0.07552
3862.91460	0.07601
3860.98604	0.07592
3859.05747	0.07578
3857.12891	0.07612
3855.20034	0.07667
3853.27178	0.07782
3851.34321	0.07924
3849.41465	0.07911
3847.48608	0.07862
3845.55752	0.07851
3843.62896	0.07883
3841.70039	0.07945
3839.77183	0.08018
3837.84326	0.08146
3835.91470	0.08314
3833.98613	0.08393
3832.05757	0.08406
3830.12900	0.08426
3828.20044	0.08459
3826.27187	0.08531
3824.34331	0.08628
3822.41475	0.08721
3820.48618	0.08847
3818.55762	0.08922
3816.62905	0.08950
3814.70049	0.09025
3812.77192	0.09087
3810.84336	0.09123
3808.91479	0.09160
3806.98623	0.09230
3805.05767	0.09391
3803.12910	0.09598
3801.20054	0.09835
3799.27197	0.10030
3797.34341	0.10087
3795.41484	0.10112
3793.48628	0.10138
3791.55771	0.10178
3789.62915	0.10266
3787.70059	0.10402
3785.77202	0.10589
3783.84346	0.10789
3781.91489	0.10927
3779.98633	0.11033
3778.05776	0.11193
3776.12920	0.11364
3774.20063	0.11498
3772.27207	0.11642
3770.34351	0.11839
3768.41494	0.12071
3766.48638	0.12262
3764.55781	0.12454
3762.62925	0.12665
3760.70068	0.12887
3758.77212	0.13158
3756.84355	0.13413
3754.91499	0.13594
3752.98643	0.13772
3751.05786	0.14074
3749.12930	0.14528
3747.20073	0.14846
3745.27217	0.15082
3743.34360	0.15463
3741.41504	0.15779
3739.48647	0.15955
3737.55791	0.16191
3735.62935	0.16602
3733.70078	0.17173
3731.77222	0.17655
3729.84365	0.18030
3727.91509	0.18420
3725.98652	0.18908
3724.05796	0.19527
3722.12939	0.20247
3720.20083	0.21061
3718.27227	0.21900
3716.34370	0.22695
3714.41514	0.23432
3712.48657	0.24290
3710.55801	0.25573
3708.62944	0.27000
3706.70088	0.28130
3704.77231	0.29181
3702.84375	0.30456
3700.91519	0.32199
3698.98662	0.34130
3697.05806	0.35890
3695.12949	0.37724
3693.20093	0.39694
3691.27236	0.41829
3689.34380	0.44623
3687.41523	0.48130
3685.48667	0.51223
3683.55811	0.53836
3681.62954	0.56584
3679.70098	0.59695
3677.77241	0.62985
3675.84385	0.66875
3673.91528	0.72207
3671.98672	0.76603
3670.05815	0.80413
3668.12959	0.85698
3666.20103	0.90609
3664.27246	0.94667
3662.34390	0.98995
3660.41533	1.03716
3658.48677	1.08392
3656.55820	1.13350
3654.62964	1.18880
3652.70107	1.23468
3650.77251	1.27342
3648.84395	1.32772
3646.91538	1.39721
3644.98682	1.44892
3643.05825	1.48820
3641.12969	1.52823
3639.20112	1.57238
3637.27256	1.61697
3635.34399	1.65994
3633.41543	1.70246
3631.48687	1.74269
3629.55830	1.78383
3627.62974	1.83815
3625.70117	1.88978
3623.77261	1.92457
3621.84404	1.95664
3619.91548	1.99287
3617.98691	2.03859
3616.05835	2.08363
3614.12979	2.12025
3612.20122	2.15874
3610.27266	2.19804
3608.34409	2.23780
3606.41553	2.28088
3604.48696	2.32111
3602.55840	2.35656
3600.62983	2.39499
3598.70127	2.43662
3596.77271	2.47514
3594.84414	2.51394
3592.91558	2.55687
3590.98701	2.59701
3589.05845	2.63111
3587.12988	2.67175
3585.20132	2.72042
3583.27275	2.76300
3581.34419	2.80176
3579.41562	2.84416
3577.48706	2.88948
3575.55850	2.93263
3573.62993	2.97358
3571.70137	3.01321
3569.77280	3.05216
3567.84424	3.09317
3565.91567	3.14342
3563.98711	3.19587
3562.05854	3.24104
3560.12998	3.28367
3558.20142	3.32611
3556.27285	3.37017
3554.34429	3.41546
3552.41572	3.46136
3550.48716	3.50719
3548.55859	3.55120
3546.63003	3.59456
3544.70146	3.64306
3542.77290	3.69390
3540.84434	3.74148
3538.91577	3.78912
3536.98721	3.83704
3535.05864	3.88480
3533.13008	3.93114
3531.20151	3.97671
3529.27295	4.02496
3527.34438	4.07436
3525.41582	4.11991
3523.48726	4.16824
3521.55869	4.22416
3519.63013	4.27538
3517.70156	4.31955
3515.77300	4.36248
3513.84443	4.40529
3511.91587	4.44983
3509.98730	4.49965
3508.05874	4.55223
3506.13018	4.59861
3504.20161	4.63795
3502.27305	4.68031
3500.34448	4.73319
3498.41592	4.78903
3496.48735	4.83989
3494.55879	4.88627
3492.63022	4.93202
3490.70166	4.97998
3488.77310	5.02811
3486.84453	5.07482
3484.91597	5.12065
3482.98740	5.16870
3481.05884	5.22283
3479.13027	5.27450
3477.20171	5.31777
3475.27314	5.36132
3473.34458	5.41134
3471.41602	5.46713
3469.48745	5.52449
3467.55889	5.57507
3465.63032	5.61611
3463.70176	5.65621
3461.77319	5.69530
3459.84463	5.73180
3457.91606	5.77281
3455.98750	5.82295
3454.05894	5.88411
3452.13037	5.95772
3450.20181	6.02868
3448.27324	6.07560
3446.34468	6.11043
3444.41611	6.15112
3442.48755	6.20041
3440.55898	6.25625
3438.63042	6.30999
3436.70186	6.35320
3434.77329	6.39352
3432.84473	6.43436
3430.91616	6.47512
3428.98760	6.53788
3427.05903	6.62220
3425.13047	6.69607
3423.20190	6.73219
3421.27334	6.74897
3419.34478	6.77087
3417.41621	6.81254
3415.48765	6.89233
3413.55908	6.96249
3411.63052	6.98005
3409.70195	7.00226
3407.77339	7.08133
3405.84482	7.17147
3403.91626	7.20864
3401.98770	7.20128
3400.05913	7.22980
3398.13057	7.31295
3396.20200	7.37757
3394.27344	7.40009
3392.34487	7.39438
3390.41631	7.38078
3388.48774	7.39052
3386.55918	7.45311
3384.63062	7.53143
3382.70205	7.60016
3380.77349	7.68024
3378.84492	7.71574
3376.91636	7.68615
3374.98779	7.66614
3373.05923	7.71675
3371.13066	7.78943
3369.20210	7.83298
3367.27354	7.84267
3365.34497	7.81369
3363.41641	7.78915
3361.48784	7.81850
3359.55928	7.87590
3357.63071	7.90832
3355.70215	7.91825
3353.77358	7.88728
3351.84502	7.88277
3349.91646	7.94231
3347.98789	7.98238
3346.05933	8.01472
3344.13076	8.09065
3342.20220	8.17299
3340.27363	8.19061
3338.34507	8.14053
3336.41650	8.06864
3334.48794	8.01902
3332.55937	8.00384
3330.63081	8.03223
3328.70225	8.07551
3326.77368	8.08873
3324.84512	8.07141
3322.91655	8.05114
3320.98799	8.07812
3319.05942	8.15324
3317.13086	8.24039
3315.20229	8.28846
3313.27373	8.28824
3311.34517	8.21793
3309.41660	8.12299
3307.48804	8.10988
3305.55947	8.14731
3303.63091	8.17859
3301.70234	8.17681
3299.77378	8.15851
3297.84521	8.15513
3295.91665	8.16431
3293.98809	8.17836
3292.05952	8.18294
3290.13096	8.18354
3288.20239	8.20307
3286.27383	8.20648
3284.34526	8.18422
3282.41670	8.20290
3280.48813	8.19576
3278.55957	8.12848
3276.63101	8.09921
3274.70244	8.13880
3272.77388	8.22383
3270.84531	8.33501
3268.91675	8.46755
3266.98818	8.54609
3265.05962	8.49441
3263.13105	8.44092
3261.20249	8.45112
3259.27393	8.37549
3257.34536	8.26559
3255.41680	8.25420
3253.48823	8.28074
3251.55967	8.30607
3249.63110	8.33571
3247.70254	8.29297
3245.77397	8.19181
3243.84541	8.15986
3241.91685	8.16214
3239.98828	8.12120
3238.05972	8.11203
3236.13115	8.18886
3234.20259	8.29804
3232.27402	8.38539
3230.34546	8.41424
3228.41689	8.32105
3226.48833	8.21108
3224.55977	8.20453
3222.63120	8.21505
3220.70264	8.13866
3218.77407	8.02046
3216.84551	7.95009
3214.91694	7.93493
3212.98838	7.90704
3211.05981	7.84864
3209.13125	7.78825
3207.20269	7.72202
3205.27412	7.69376
3203.34556	7.73703
3201.41699	7.75076
3199.48843	7.68538
3197.55986	7.61855
3195.63130	7.57068
3193.70273	7.55493
3191.77417	7.55234
3189.84561	7.49031
3187.91704	7.41098
3185.98848	7.38987
3184.05991	7.38735
3182.13135	7.33243
3180.20278	7.25050
3178.27422	7.18394
3176.34565	7.11198
3174.41709	7.04357
3172.48853	7.00764
3170.55996	6.96169
3168.63140	6.88269
3166.70283	6.81235
3164.77427	6.76791
3162.84570	6.72848
3160.91714	6.66483
3158.98857	6.57629
3157.06001	6.49036
3155.13145	6.42429
3153.20288	6.36750
3151.27432	6.31488
3149.34575	6.27515
3147.41719	6.23307
3145.48862	6.16189
3143.56006	6.07239
3141.63149	5.99660
3139.70293	5.92904
3137.77437	5.85137
3135.84580	5.77213
3133.91724	5.70103
3131.98867	5.62693
3130.06011	5.54464
3128.13154	5.47198
3126.20298	5.41479
3124.27441	5.35333
3122.34585	5.27492
3120.41729	5.19485
3118.48872	5.12458
3116.56016	5.05662
3114.63159	4.98510
3112.70303	4.91727
3110.77446	4.86093
3108.84590	4.80295
3106.91733	4.73208
3104.98877	4.65871
3103.06021	4.58771
3101.13164	4.51486
3099.20308	4.44572
3097.27451	4.38371
3095.34595	4.32091
3093.41738	4.25429
3091.48882	4.18914
3089.56025	4.12866
3087.63169	4.06945
3085.70312	4.00829
3083.77456	3.94814
3081.84600	3.89088
3079.91743	3.83285
3077.98887	3.77357
3076.06030	3.71539
3074.13174	3.65657
3072.20317	3.59673
3070.27461	3.53892
3068.34604	3.48368
3066.41748	3.42950
3064.48892	3.37643
3062.56035	3.32394
3060.63179	3.27086
3058.70322	3.21760
3056.77466	3.16340
3054.84609	3.10868
3052.91753	3.05653
3050.98896	3.00685
3049.06040	2.95675
3047.13184	2.90614
3045.20327	2.85722
3043.27471	2.81015
3041.34614	2.76350
3039.41758	2.71662
3037.48901	2.66965
3035.56045	2.62324
3033.63188	2.57807
3031.70332	2.53442
3029.77476	2.49212
3027.84619	2.45033
3025.91763	2.40819
3023.98906	2.36592
3022.06050	2.32444
3020.13193	2.28380
3018.20337	2.24386
3016.27480	2.20481
3014.34624	2.16618
3012.41768	2.12769
3010.48911	2.08991
3008.56055	2.05325
3006.63198	2.01780
3004.70342	1.98304
3002.77485	1.94853
3000.84629	1.91479
2998.91772	1.88179
2996.98916	1.84934
2995.06060	1.81769
2993.13203	1.78667
2991.20347	1.75621
2989.27490	1.72657
2987.34634	1.69776
2985.41777	1.66982
2983.48921	1.64275
2981.56064	1.61579
2979.63208	1.58873
2977.70352	1.56241
2975.77495	1.53687
2973.84639	1.51172
2971.91782	1.48694
2969.98926	1.46241
2968.06069	1.43834
2966.13213	1.41491
2964.20356	1.39196
2962.27500	1.36912
2960.34644	1.34574
2958.41787	1.32197
2956.48931	1.29851
2954.56074	1.27557
2952.63218	1.25305
2950.70361	1.23103
2948.77505	1.20971
2946.84648	1.18875
2944.91792	1.16787
2942.98936	1.14734
2941.06079	1.12735
2939.13223	1.10767
2937.20366	1.08842
2935.27510	1.06995
2933.34653	1.05153
2931.41797	1.03249
2929.48940	1.01353
2927.56084	0.99515
2925.63228	0.97722
2923.70371	0.95984
2921.77515	0.94300
2919.84658	0.92655
2917.91802	0.91040
2915.98945	0.89426
2914.06089	0.87794
2912.13232	0.86173
2910.20376	0.84591
2908.27520	0.83028
2906.34663	0.81526
2904.41807	0.80152
2902.48950	0.78845
2900.56094	0.77509
2898.63237	0.76137
2896.70381	0.74814
2894.77524	0.73581
2892.84668	0.72383
2890.91812	0.71185
2888.98955	0.70048
2887.06099	0.68991
2885.13242	0.67955
2883.20386	0.66916
2881.27529	0.65905
2879.34673	0.64946
2877.41816	0.64016
2875.48960	0.63059
2873.56104	0.62056
2871.63247	0.61021
2869.70391	0.59960
2867.77534	0.58887
2865.84678	0.57812
2863.91821	0.56715
2861.98965	0.55606
2860.06108	0.54552
2858.13252	0.53571
2856.20396	0.52628
2854.27539	0.51719
2852.34683	0.50851
2850.41826	0.50015
2848.48970	0.49202
2846.56113	0.48405
2844.63257	0.47616
2842.70400	0.46861
2840.77544	0.46186
2838.84687	0.45590
2836.91831	0.44996
2834.98975	0.44361
2833.06118	0.43731
2831.13262	0.43143
2829.20405	0.42571
2827.27549	0.41985
2825.34692	0.41374
2823.41836	0.40741
2821.48979	0.40120
2819.56123	0.39545
2817.63267	0.39000
2815.70410	0.38446
2813.77554	0.37881
2811.84697	0.37324
2809.91841	0.36787
2807.98984	0.36262
2806.06128	0.35740
2804.13271	0.35231
2802.20415	0.34753
2800.27559	0.34285
2798.34702	0.33798
2796.41846	0.33319
2794.48989	0.32872
2792.56133	0.32424
2790.63276	0.31963
2788.70420	0.31513
2786.77563	0.31071
2784.84707	0.30638
2782.91851	0.30235
2780.98994	0.29853
2779.06138	0.29474
2777.13281	0.29092
2775.20425	0.28708
2773.27568	0.28328
2771.34712	0.27961
2769.41855	0.27604
2767.48999	0.27259
2765.56143	0.26923
2763.63286	0.26585
2761.70430	0.26245
2759.77573	0.25917
2757.84717	0.25607
2755.91860	0.25304
2753.99004	0.24998
2752.06147	0.24698
2750.13291	0.24407
2748.20435	0.24113
2746.27578	0.23829
2744.34722	0.23581
2742.41865	0.23335
2740.49009	0.23058
2738.56152	0.22795
2736.63296	0.22567
2734.70439	0.22330
2732.77583	0.22067
2730.84727	0.21816
2728.91870	0.21590
2726.99014	0.21379
2725.06157	0.21176
2723.13301	0.20969
2721.20444	0.20750
2719.27588	0.20543
2717.34731	0.20352
2715.41875	0.20164
2713.49019	0.19983
2711.56162	0.19808
2709.63306	0.19624
2707.70449	0.19436
2705.77593	0.19272
2703.84736	0.19132
2701.91880	0.18988
2699.99023	0.18834
2698.06167	0.18682
2696.13311	0.18537
2694.20454	0.18397
2692.27598	0.18254
2690.34741	0.18112
2688.41885	0.17987
2686.49028	0.17888
2684.56172	0.17791
2682.63315	0.17661
2680.70459	0.17509
2678.77603	0.17377
2676.84746	0.17268
2674.91890	0.17163
2672.99033	0.17048
2671.06177	0.16932
2669.13320	0.16837
2667.20464	0.16746
2665.27607	0.16638
2663.34751	0.16535
2661.41895	0.16440
2659.49038	0.16351
2657.56182	0.16294
2655.63325	0.16254
2653.70469	0.16185
2651.77612	0.16094
2649.84756	0.16008
2647.91899	0.15928
2645.99043	0.15857
2644.06187	0.15799
2642.13330	0.15734
2640.20474	0.15662
2638.27617	0.15607
2636.34761	0.15573
2634.41904	0.15537
2632.49048	0.15486
2630.56191	0.15434
2628.63335	0.15388
2626.70479	0.15345
2624.77622	0.15306
2622.84766	0.15270
2620.91909	0.15240
2618.99053	0.15221
2617.06196	0.15203
2615.13340	0.15185
2613.20483	0.15176
2611.27627	0.15166
2609.34771	0.15150
2607.41914	0.15129
2605.49058	0.15105
2603.56201	0.15088
2601.63345	0.15083
2599.70488	0.15085
2597.77632	0.15090
2595.84775	0.15096
2593.91919	0.15101
2591.99062	0.15100
2590.06206	0.15100
2588.13350	0.15117
2586.20493	0.15147
2584.27637	0.15168
2582.34780	0.15180
2580.41924	0.15201
2578.49067	0.15231
2576.56211	0.15256
2574.63354	0.15283
2572.70498	0.15325
2570.77642	0.15374
2568.84785	0.15405
2566.91929	0.15422
2564.99072	0.15440
2563.06216	0.15462
2561.13359	0.15499
2559.20503	0.15539
2557.27646	0.15570
2555.34790	0.15611
2553.41934	0.15663
2551.49077	0.15710
2549.56221	0.15756
2547.63364	0.15811
2545.70508	0.15870
2543.77651	0.15937
2541.84795	0.16012
2539.91938	0.16088
2537.99082	0.16149
2536.06226	0.16192
2534.13369	0.16242
2532.20513	0.16302
2530.27656	0.16358
2528.34800	0.16412
2526.41943	0.16479
2524.49087	0.16548
2522.56230	0.16613
2520.63374	0.16688
2518.70518	0.16777
2516.77661	0.16858
2514.84805	0.16921
2512.91948	0.16995
2510.99092	0.17083
2509.06235	0.17158
2507.13379	0.17214
2505.20522	0.17277
2503.27666	0.17354
2501.34810	0.17434
2499.41953	0.17516
2497.49097	0.17604
2495.56240	0.17694
2493.63384	0.17784
2491.70527	0.17866
2489.77671	0.17935
2487.84814	0.18001
2485.91958	0.18077
2483.99102	0.18167
2482.06245	0.18266
2480.13389	0.18356
2478.20532	0.18438
2476.27676	0.18514
2474.34819	0.18587
2472.41963	0.18664
2470.49106	0.18745
2468.56250	0.18824
2466.63394	0.18902
2464.70537	0.19003
2462.77681	0.19120
2460.84824	0.19219
2458.91968	0.19305
2456.99111	0.19400
2455.06255	0.19498
2453.13398	0.19591
2451.20542	0.19684
2449.27686	0.19778
2447.34829	0.19871
2445.41973	0.19963
2443.49116	0.20062
2441.56260	0.20164
2439.63403	0.20263
2437.70547	0.20359
2435.77690	0.20449
2433.84834	0.20541
2431.91978	0.20650
2429.99121	0.20765
2428.06265	0.20865
2426.13408	0.20958
2424.20552	0.21059
2422.27695	0.21172
2420.34839	0.21281
2418.41982	0.21382
2416.49126	0.21478
2414.56270	0.21572
2412.63413	0.21683
2410.70557	0.21812
2408.77700	0.21933
2406.84844	0.22037
2404.91987	0.22143
2402.99131	0.22259
2401.06274	0.22382
2399.13418	0.22504
2397.20562	0.22617
2395.27705	0.22729
2393.34849	0.22851
2391.41992	0.22979
2389.49136	0.23093
2387.56279	0.23194
2385.63423	0.23275
2383.70566	0.23316
2381.77710	0.23323
2379.84854	0.23321
2377.91997	0.23310
2375.99141	0.23282
2374.06284	0.23251
2372.13428	0.23195
2370.20571	0.23079
2368.27715	0.22939
2366.34858	0.22816
2364.42002	0.22689
2362.49146	0.22629
2360.56289	0.22745
2358.63433	0.23033
2356.70576	0.23475
2354.77720	0.23919
2352.84863	0.24315
2350.92007	0.24694
2348.99150	0.24953
2347.06294	0.25045
2345.13437	0.25013
2343.20581	0.24989
2341.27725	0.25102
2339.34868	0.25275
2337.42012	0.25408
2335.49155	0.25548
2333.56299	0.25788
2331.63442	0.26076
2329.70586	0.26255
2327.77729	0.26369
2325.84873	0.26596
2323.92017	0.26935
2321.99160	0.27280
2320.06304	0.27563
2318.13447	0.27790
2316.20591	0.27980
2314.27734	0.28174
2312.34878	0.28412
2310.42021	0.28660
2308.49165	0.28877
2306.56309	0.29098
2304.63452	0.29331
2302.70596	0.29556
2300.77739	0.29779
2298.84883	0.30000
2296.92026	0.30211
2294.99170	0.30409
2293.06313	0.30616
2291.13457	0.30843
2289.20601	0.31073
2287.27744	0.31291
2285.34888	0.31501
2283.42031	0.31707
2281.49175	0.31908
2279.56318	0.32110
2277.63462	0.32306
2275.70605	0.32490
2273.77749	0.32680
2271.84893	0.32889
2269.92036	0.33112
2267.99180	0.33344
2266.06323	0.33560
2264.13467	0.33751
2262.20610	0.33940
2260.27754	0.34140
2258.34897	0.34353
2256.42041	0.34573
2254.49185	0.34793
2252.56328	0.35013
2250.63472	0.35234
2248.70615	0.35454
2246.77759	0.35674
2244.84902	0.35892
2242.92046	0.36102
2240.99189	0.36311
2239.06333	0.36529
2237.13477	0.36759
2235.20620	0.36986
2233.27764	0.37206
2231.34907	0.37426
2229.42051	0.37646
2227.49194	0.37873
2225.56338	0.38100
2223.63481	0.38306
2221.70625	0.38498
2219.77769	0.38704
2217.84912	0.38926
2215.92056	0.39147
2213.99199	0.39356
2212.06343	0.39565
2210.13486	0.39780
2208.20630	0.39995
2206.27773	0.40206
2204.34917	0.40408
2202.42061	0.40599
2200.49204	0.40792
2198.56348	0.40993
2196.63491	0.41190
2194.70635	0.41369
2192.77778	0.41544
2190.84922	0.41736
2188.92065	0.41928
2186.99209	0.42106
2185.06353	0.42286
2183.13496	0.42471
2181.20640	0.42650
2179.27783	0.42813
2177.34927	0.42965
2175.42070	0.43121
2173.49214	0.43277
2171.56357	0.43417
2169.63501	0.43548
2167.70645	0.43684
2165.77788	0.43818
2163.84932	0.43940
2161.92075	0.44049
2159.99219	0.44152
2158.06362	0.44255
2156.13506	0.44357
2154.20649	0.44447
2152.27793	0.44528
2150.34937	0.44614
2148.42080	0.44689
2146.49224	0.44740
2144.56367	0.44783
2142.63511	0.44826
2140.70654	0.44858
2138.77798	0.44879
2136.84941	0.44893
2134.92085	0.44908
2132.99229	0.44919
2131.06372	0.44926
2129.13516	0.44927
2127.20659	0.44910
2125.27803	0.44876
2123.34946	0.44831
2121.42090	0.44783
2119.49233	0.44735
2117.56377	0.44682
2115.63521	0.44624
2113.70664	0.44562
2111.77808	0.44489
2109.84951	0.44407
2107.92095	0.44310
2105.99238	0.44198
2104.06382	0.44084
2102.13525	0.43967
2100.20669	0.43847
2098.27812	0.43722
2096.34956	0.43591
2094.42100	0.43442
2092.49243	0.43280
2090.56387	0.43115
2088.63530	0.42945
2086.70674	0.42772
2084.77817	0.42599
2082.84961	0.42427
2080.92104	0.42246
2078.99248	0.42052
2077.06392	0.41850
2075.13535	0.41644
2073.20679	0.41435
2071.27822	0.41219
2069.34966	0.41000
2067.42109	0.40784
2065.49253	0.40567
2063.56396	0.40334
2061.63540	0.40089
2059.70684	0.39843
2057.77827	0.39604
2055.84971	0.39370
2053.92114	0.39126
2051.99258	0.38859
2050.06401	0.38584
2048.13545	0.38326
2046.20688	0.38075
2044.27832	0.37821
2042.34976	0.37565
2040.42119	0.37301
2038.49263	0.37030
2036.56406	0.36764
2034.63550	0.36502
2032.70693	0.36237
2030.77837	0.35974
2028.84980	0.35709
2026.92124	0.35441
2024.99268	0.35175
2023.06411	0.34910
2021.13555	0.34642
2019.20698	0.34373
2017.27842	0.34099
2015.34985	0.33820
2013.42129	0.33554
2011.49272	0.33284
2009.56416	0.33006
2007.63560	0.32734
2005.70703	0.32475
2003.77847	0.32223
2001.84990	0.31963
1999.92134	0.31699
1997.99277	0.31440
1996.06421	0.31187
1994.13564	0.30941
1992.20708	0.30704
1990.27852	0.30458
1988.34995	0.30201
1986.42139	0.29946
1984.49282	0.29702
1982.56426	0.29467
1980.63569	0.29237
1978.70713	0.29016
1976.77856	0.28802
1974.85000	0.28589
1972.92144	0.28375
1970.99287	0.28169
1969.06431	0.27972
1967.13574	0.27774
1965.20718	0.27564
1963.27861	0.27356
1961.35005	0.27166
1959.42148	0.26983
1957.49292	0.26800
1955.56436	0.26624
1953.63579	0.26462
1951.70723	0.26296
1949.77866	0.26123
1947.85010	0.25958
1945.92153	0.25805
1943.99297	0.25658
1942.06440	0.25509
1940.13584	0.25359
1938.20728	0.25216
1936.27871	0.25086
1934.35015	0.24962
1932.42158	0.24837
1930.49302	0.24712
1928.56445	0.24594
1926.63589	0.24484
1924.70732	0.24387
1922.77876	0.24303
1920.85020	0.24212
1918.92163	0.24118
1916.99307	0.24027
1915.06450	0.23934
1913.13594	0.23840
1911.20737	0.23767
1909.27881	0.23711
1907.35024	0.23648
1905.42168	0.23572
1903.49312	0.23501
1901.56455	0.23449
1899.63599	0.23407
1897.70742	0.23367
1895.77886	0.23332
1893.85029	0.23304
1891.92173	0.23269
1889.99316	0.23235
1888.06460	0.23199
1886.13604	0.23164
1884.20747	0.23139
1882.27891	0.23119
1880.35034	0.23109
1878.42178	0.23110
1876.49321	0.23112
1874.56465	0.23103
1872.63608	0.23097
1870.70752	0.23109
1868.77896	0.23157
1866.85039	0.23197
1864.92183	0.23192
1862.99326	0.23183
1861.06470	0.23196
1859.13613	0.23233
1857.20757	0.23272
1855.27900	0.23316
1853.35044	0.23362
1851.42187	0.23406
1849.49331	0.23446
1847.56475	0.23504
1845.63618	0.23586
1843.70762	0.23687
1841.77905	0.23769
1839.85049	0.23814
1837.92192	0.23886
1835.99336	0.23976
1834.06479	0.24069
1832.13623	0.24166
1830.20767	0.24298
1828.27910	0.24437
1826.35054	0.24545
1824.42197	0.24674
1822.49341	0.24808
1820.56484	0.24936
1818.63628	0.25072
1816.70771	0.25237
1814.77915	0.25403
1812.85059	0.25569
1810.92202	0.25761
1808.99346	0.25962
1807.06489	0.26155
1805.13633	0.26345
1803.20776	0.26558
1801.27920	0.26789
1799.35063	0.27052
1797.42207	0.27306
1795.49351	0.27549
1793.56494	0.27826
1791.63638	0.28192
1789.70781	0.28540
1787.77925	0.28786
1785.85068	0.29080
1783.92212	0.29444
1781.99355	0.29839
1780.06499	0.30245
1778.13643	0.30660
1776.20786	0.31058
1774.27930	0.31482
1772.35073	0.32055
1770.42217	0.32686
1768.49360	0.33217
1766.56504	0.33718
1764.63647	0.34231
1762.70791	0.34802
1760.77935	0.35537
1758.85078	0.36228
1756.92222	0.36923
1754.99365	0.37696
1753.06509	0.38395
1751.13652	0.39211
1749.20796	0.40248
1747.27939	0.41292
1745.35083	0.42215
1743.42227	0.43178
1741.49370	0.44216
1739.56514	0.45424
1737.63657	0.46633
1735.70801	0.47680
1733.77944	0.49272
1731.85088	0.51247
1729.92231	0.52824
1727.99375	0.54388
1726.06519	0.56050
1724.13662	0.57861
1722.20806	0.59828
1720.27949	0.61635
1718.35093	0.63731
1716.42236	0.66871
1714.49380	0.69908
1712.56523	0.72367
1710.63667	0.74720
1708.70811	0.77230
1706.77954	0.80089
1704.85098	0.83572
1702.92241	0.86733
1700.99385	0.89844
1699.06528	0.94418
1697.13672	0.98627
1695.20815	1.03038
1693.27959	1.07372
1691.35103	1.10847
1689.42246	1.14855
1687.49390	1.19122
1685.56533	1.23209
1683.63677	1.29457
1681.70820	1.36016
1679.77964	1.40287
1677.85107	1.44370
1675.92251	1.49050
1673.99395	1.54806
1672.06538	1.59917
1670.13682	1.64979
1668.20825	1.71650
1666.27969	1.77149
1664.35112	1.81869
1662.42256	1.87819
1660.49399	1.94414
1658.56543	1.99466
1656.63687	2.03599
1654.70830	2.07555
1652.77974	2.13709
1650.85117	2.19013
1648.92261	2.20603
1646.99404	2.22962
1645.06548	2.25873
1643.13691	2.27694
1641.20835	2.28646
1639.27979	2.29568
1637.35122	2.30228
1635.42266	2.30281
1633.49409	2.29360
1631.56553	2.27722
1629.63696	2.25790
1627.70840	2.22821
1625.77983	2.19406
1623.85127	2.15140
1621.92271	2.09930
1619.99414	2.05305
1618.06558	2.00773
1616.13701	1.94299
1614.20845	1.87768
1612.27988	1.82794
1610.35132	1.77541
1608.42275	1.71888
1606.49419	1.66402
1604.56562	1.61351
1602.63706	1.56459
1600.70850	1.51670
1598.77993	1.47270
1596.85137	1.43160
1594.92280	1.39170
1592.99424	1.35326
1591.06567	1.31839
1589.13711	1.28609
1587.20854	1.25627
1585.27998	1.22896
1583.35142	1.20343
1581.42285	1.18016
1579.49429	1.16063
1577.56572	1.14322
1575.63716	1.12191
1573.70859	1.10328
1571.78003	1.09142
1569.85146	1.07969
1567.92290	1.06706
1565.99434	1.05774
1564.06577	1.05117
1562.13721	1.04657
1560.20864	1.04422
1558.28008	1.04367
1556.35151	1.04317
1554.42295	1.04222
1552.49438	1.04161
1550.56582	1.04000
1548.63726	1.03606
1546.70869	1.03007
1544.78013	1.02177
1542.85156	1.01076
1540.92300	0.99468
1538.99443	0.96924
1537.06587	0.95010
1535.13730	0.93689
1533.20874	0.91929
1531.28018	0.90032
1529.35161	0.88663
1527.42305	0.87389
1525.49448	0.86070
1523.56592	0.84936
1521.63735	0.83825
1519.70879	0.82713
1517.78022	0.81802
1515.85166	0.80739
1513.92310	0.79621
1511.99453	0.78663
1510.06597	0.77798
1508.13740	0.76954
1506.20884	0.75642
1504.28027	0.74492
1502.35171	0.73841
1500.42314	0.73272
1498.49458	0.72679
1496.56602	0.72002
1494.63745	0.71323
1492.70889	0.70787
1490.78032	0.70309
1488.85176	0.69750
1486.92319	0.69215
1484.99463	0.68801
1483.06606	0.68489
1481.13750	0.68234
1479.20894	0.68020
1477.28037	0.67887
1475.35181	0.67834
1473.42324	0.67826
1471.49468	0.67765
1469.56611	0.67601
1467.63755	0.67412
1465.70898	0.67258
1463.78042	0.67141
1461.85186	0.67059
1459.92329	0.67038
1457.99473	0.67090
1456.06616	0.67069
1454.13760	0.66853
1452.20903	0.66625
1450.28047	0.66407
1448.35190	0.66171
1446.42334	0.65913
1444.49478	0.65671
1442.56621	0.65449
1440.63765	0.65218
1438.70908	0.64976
1436.78052	0.64674
1434.85195	0.64326
1432.92339	0.64059
1430.99482	0.63884
1429.06626	0.63779
1427.13770	0.63740
1425.20913	0.63747
1423.28057	0.63781
1421.35200	0.63801
1419.42344	0.63807
1417.49487	0.63772
1415.56631	0.63662
1413.63774	0.63558
1411.70918	0.63516
1409.78062	0.63544
1407.85205	0.63612
1405.92349	0.63704
1403.99492	0.63789
1402.06636	0.63792
1400.13779	0.63719
1398.20923	0.63593
1396.28066	0.63400
1394.35210	0.63092
1392.42354	0.62714
1390.49497	0.62367
1388.56641	0.62029
1386.63784	0.61625
1384.70928	0.61192
1382.78071	0.60796
1380.85215	0.60429
1378.92358	0.60116
1376.99502	0.59892
1375.06646	0.59731
1373.13789	0.59600
1371.20933	0.59517
1369.28076	0.59472
1367.35220	0.59388
1365.42363	0.59243
1363.49507	0.59088
1361.56650	0.58945
1359.63794	0.58810
1357.70937	0.58692
1355.78081	0.58577
1353.85225	0.58452
1351.92368	0.58333
1349.99512	0.58240
1348.06655	0.58161
1346.13799	0.58065
1344.20942	0.57965
1342.28086	0.57887
1340.35229	0.57836
1338.42373	0.57779
1336.49517	0.57693
1334.56660	0.57614
1332.63804	0.57570
1330.70947	0.57564
1328.78091	0.57588
1326.85234	0.57627
1324.92378	0.57666
1322.99521	0.57706
1321.06665	0.57757
1319.13809	0.57810
1317.20952	0.57832
1315.28096	0.57813
1313.35239	0.57770
1311.42383	0.57713
1309.49526	0.57640
1307.56670	0.57562
1305.63813	0.57494
1303.70957	0.57432
1301.78101	0.57368
1299.85244	0.57284
1297.92388	0.57178
1295.99531	0.57066
1294.06675	0.56962
1292.13818	0.56859
1290.20962	0.56748
1288.28105	0.56638
1286.35249	0.56529
1284.42393	0.56419
1282.49536	0.56309
1280.56680	0.56198
1278.63823	0.56080
1276.70967	0.55955
1274.78110	0.55839
1272.85254	0.55749
1270.92397	0.55685
1268.99541	0.55632
1267.06685	0.55578
1265.13828	0.55518
1263.20972	0.55457
1261.28115	0.55388
1259.35259	0.55313
1257.42402	0.55249
1255.49546	0.55207
1253.56689	0.55190
1251.63833	0.55183
1249.70977	0.55165
1247.78120	0.55128
1245.85264	0.55086
1243.92407	0.55039
1241.99551	0.54971
1240.06694	0.54859
1238.13838	0.54703
1236.20981	0.54527
1234.28125	0.54342
1232.35269	0.54147
1230.42412	0.53945
1228.49556	0.53754
1226.56699	0.53595
1224.63843	0.53457
1222.70986	0.53306
1220.78130	0.53138
1218.85273	0.52994
1216.92417	0.52890
1214.99561	0.52804
1213.06704	0.52718
1211.13848	0.52631
1209.20991	0.52550
1207.28135	0.52494
1205.35278	0.52441
1203.42422	0.52366
1201.49565	0.52277
1199.56709	0.52180
1197.63853	0.52085
1195.70996	0.52003
1193.78140	0.51934
1191.85283	0.51876
1189.92427	0.51825
1187.99570	0.51786
1186.06714	0.51767
1184.13857	0.51771
1182.21001	0.51798
1180.28145	0.51852
1178.35288	0.51946
1176.42432	0.52072
1174.49575	0.52200
1172.56719	0.52305
1170.63862	0.52375
1168.71006	0.52408
1166.78149	0.52419
1164.85293	0.52446
1162.92437	0.52494
1160.99580	0.52537
1159.06724	0.52546
1157.13867	0.52508
1155.21011	0.52444
1153.28154	0.52356
1151.35298	0.52217
1149.42441	0.52018
1147.49585	0.51773
1145.56729	0.51501
1143.63872	0.51229
1141.71016	0.50989
1139.78159	0.50805
1137.85303	0.50679
1135.92446	0.50599
1133.99590	0.50546
1132.06733	0.50512
1130.13877	0.50508
1128.21021	0.50513
1126.28164	0.50486
1124.35308	0.50443
1122.42451	0.50418
1120.49595	0.50419
1118.56738	0.50465
1116.63882	0.50547
1114.71025	0.50631
1112.78169	0.50711
1110.85312	0.50796
1108.92456	0.50896
1106.99600	0.51008
1105.06743	0.51095
1103.13887	0.51164
1101.21030	0.51268
1099.28174	0.51411
1097.35317	0.51587
1095.42461	0.51831
1093.49604	0.52197
1091.56748	0.52706
1089.63892	0.53340
1087.71035	0.54093
1085.78179	0.54946
1083.85322	0.55812
1081.92466	0.56569
1079.99609	0.57132
1078.06753	0.57426
1076.13896	0.57385
1074.21040	0.57012
1072.28184	0.56412
1070.35327	0.55712
1068.42471	0.54983
1066.49614	0.54286
1064.56758	0.53670
1062.63901	0.53137
1060.71045	0.52678
1058.78188	0.52270
1056.85332	0.51894
1054.92476	0.51568
1052.99619	0.51291
1051.06763	0.51064
1049.13906	0.50908
1047.21050	0.50834
1045.28193	0.50817
1043.35337	0.50818
1041.42480	0.50838
1039.49624	0.50867
1037.56768	0.50876
1035.63911	0.50864
1033.71055	0.50828
1031.78198	0.50743
1029.85342	0.50602
1027.92485	0.50425
1025.99629	0.50241
1024.06772	0.50066
1022.13916	0.49935
1020.21060	0.49867
1018.28203	0.49826
1016.35347	0.49787
1014.42490	0.49753
1012.49634	0.49713
1010.56777	0.49682
1008.63921	0.49677
1006.71064	0.49702
1004.78208	0.49777
1002.85352	0.49916
1000.92495	0.50128
998.99639	0.50429
997.06782	0.50818
995.13926	0.51260
993.21069	0.51683
991.28213	0.52012
989.35356	0.52219
987.42500	0.52302
985.49644	0.52284
983.56787	0.52244
981.63931	0.52242
979.71074	0.52283
977.78218	0.52379
975.85361	0.52553
973.92505	0.52792
971.99648	0.53063
970.06792	0.53355
968.13936	0.53695
966.21079	0.54094
964.28223	0.54513
962.35366	0.54949
960.42510	0.55428
958.49653	0.55941
956.56797	0.56472
954.63940	0.57044
952.71084	0.57664
950.78228	0.58293
948.85371	0.58906
946.92515	0.59527
944.99658	0.60157
943.06802	0.60767
941.13945	0.61373
939.21089	0.61980
937.28232	0.62545
935.35376	0.63085
933.42520	0.63668
931.49663	0.64281
929.56807	0.64863
927.63950	0.65431
925.71094	0.66021
923.78237	0.66605
921.85381	0.67208
919.92524	0.67861
917.99668	0.68489
916.06812	0.69114
914.13955	0.69850
912.21099	0.70693
910.28242	0.71547
908.35386	0.72371
906.42529	0.73245
904.49673	0.74207
902.56816	0.75068
900.63960	0.75834
898.71104	0.76810
896.78247	0.77917
894.85391	0.78874
892.92534	0.79750
890.99678	0.80687
889.06821	0.81731
887.13965	0.82857
885.21108	0.84003
883.28252	0.85151
881.35396	0.86262
879.42539	0.87353
877.49683	0.88535
875.56826	0.89839
873.63970	0.91103
871.71113	0.92165
869.78257	0.93103
867.85400	0.94081
865.92544	0.95139
863.99687	0.96226
862.06831	0.97324
860.13975	0.98443
858.21118	0.99592
856.28262	1.00809
854.35405	1.02117
852.42549	1.03530
850.49692	1.04793
848.56836	1.05662
846.63979	1.06637
844.71123	1.08019
842.78267	1.09372
840.85410	1.10524
838.92554	1.11629
836.99697	1.12767
835.06841	1.13841
833.13984	1.14687
831.21128	1.15562
829.28271	1.16885
827.35415	1.18430
825.42559	1.19727
823.49702	1.21149
821.56846	1.23164
819.63989	1.25308
817.71133	1.26967
815.78276	1.27863
813.85420	1.28242
811.92563	1.29180
809.99707	1.31132
808.06851	1.33947
806.13994	1.36823
804.21138	1.37745
802.28281	1.37369
800.35425	1.38086
798.42568	1.40029
796.49712	1.41784
794.56855	1.42324
792.63999	1.41222
790.71143	1.42000
788.78286	1.47716
786.85430	1.49869
784.92573	1.46791
782.99717	1.48566
781.06860	1.53229
779.14004	1.54979
777.21147	1.52763
775.28291	1.49073
773.35435	1.53457
771.42578	1.70512
769.49722	1.85017
767.56865	1.88184
765.64009	1.92747
763.71152	1.74094
761.78296	1.49400
759.85439	1.33787
757.92583	1.36098
755.99727	1.50302
754.06870	1.63804
752.14014	1.39595
750.21157	1.14787
748.28301	1.05098
746.35444	1.05656
744.42588	1.11962
742.49731	1.12834
740.56875	1.01225
738.64019	0.96901
736.71162	1.16658
734.78306	1.68321
732.85449	1.17263
730.92593	0.93518
728.99736	0.89826
727.06880	0.72033
725.14023	0.48740
723.21167	0.32576
721.28311	0.16273
719.35454	0.06355
717.42598	-0.01596
715.49741	-0.10842
713.56885	0.02668
711.64028	0.20974
709.71172	0.17864
707.78315	0.15117
705.85459	0.26780
703.92603	0.40076
701.99746	0.32939
700.06890	0.17598
698.14033	0.15706
696.21177	0.24625
694.28320	0.28286
692.35464	0.32945
690.42607	0.48359
688.49751	0.53282
686.56895	0.42115
684.64038	0.40400
682.71182	0.53171
680.78325	0.76985
678.85469	0.65157
676.92612	0.38192
674.99756	0.25900
673.06899	0.17335
671.14043	0.11787
669.21187	0.11958
667.28330	0.14471
665.35474	0.21659
663.42617	0.33415
661.49761	0.37620
659.56904	0.32206
657.64048	0.23992
655.71191	0.16239
653.78335	0.18147
651.85479	0.36715
649.92622	0.73351
647.99766	1.10964
646.06909	0.51590
644.14053	0.41237
642.21196	0.42446
640.28340	0.36366
638.35483	0.32394
636.42627	0.39754
634.49771	0.40222
632.56914	0.37593
630.64058	0.36472
628.71201	0.28800
626.78345	0.22333
624.85488	0.25417
622.92632	0.41632
620.99775	0.71912
619.06919	0.80955
617.14062	0.39439
615.21206	0.17440
613.28350	0.11230
611.35493	0.11440
609.42637	0.16010
607.49780	0.25687
605.56924	0.34098
603.64067	0.35832
601.71211	0.42568
599.78354	0.64485
597.85498	0.83553
595.92642	0.64072
593.99785	0.42698
592.06929	0.29797
590.14072	0.23512
588.21216	0.25687
586.28359	0.43502
584.35503	0.68616
582.42646	0.55888
580.49790	0.49640
578.56934	0.46074
576.64077	0.27745
574.71221	0.14056
572.78364	0.10450
570.85508	0.14323
568.92651	0.21857
566.99795	0.24977
565.06938	0.19668
563.14082	0.11193
561.21226	0.09733
559.28369	0.22412
557.35513	0.42517
555.42656	0.46171
553.49800	0.29791
551.56943	0.16277
549.64087	0.17149
547.71230	0.27697
545.78374	0.33635
543.85518	0.29352
541.92661	0.25398
539.99805	0.24821
538.06948	0.26399
536.14092	0.29415
534.21235	0.34714
532.28379	0.41119
530.35522	0.40648
528.42666	0.31499
526.49810	0.27572
524.56953	0.37251
522.64097	0.42777
520.71240	0.28775
518.78384	0.23855
516.85527	0.33273
514.92671	0.46851
512.99814	0.43763
511.06958	0.29695
509.14102	0.23162
507.21245	0.20186
505.28389	0.19908
503.35532	0.26868
501.42676	0.39373
499.49819	0.39191
