3997.91411	0.05939
3995.98555	0.05974
3994.05698	0.05994
3992.12842	0.06023
3990.19985	0.06060
3988.27129	0.06091
3986.34272	0.06106
3984.41416	0.06108
3982.48560	0.06105
3980.55703	0.06130
3978.62847	0.06194
3976.69990	0.06257
3974.77134	0.06295
3972.84277	0.06329
3970.91421	0.06373
3968.98564	0.06406
3967.05708	0.06418
3965.12852	0.06401
3963.19995	0.06383
3961.27139	0.06402
3959.34282	0.06425
3957.41426	0.06425
3955.48569	0.06429
3953.55713	0.06440
3951.62856	0.06470
3949.70000	0.06536
3947.77144	0.06601
3945.84287	0.06603
3943.91431	0.06556
3941.98574	0.06530
3940.05718	0.06513
3938.12861	0.06456
3936.20005	0.06418
3934.27148	0.06474
3932.34292	0.06579
3930.41436	0.06627
3928.48579	0.06595
3926.55723	0.06553
3924.62866	0.06550
3922.70010	0.06547
3920.77153	0.06523
3918.84297	0.06513
3916.91440	0.06519
3914.98584	0.06490
3913.05728	0.06427
3911.12871	0.06376
3909.20015	0.06358
3907.27158	0.06388
3905.34302	0.06448
3903.41445	0.06495
3901.48589	0.06515
3899.55732	0.06527
3897.62876	0.06532
3895.70020	0.06511
3893.77163	0.06491
3891.84307	0.06502
3889.91450	0.06484
3887.98594	0.06425
3886.05737	0.06440
3884.12881	0.06532
3882.20024	0.06602
3880.27168	0.06652
3878.34312	0.06668
3876.41455	0.06638
3874.48599	0.06628
3872.55742	0.06680
3870.62886	0.06773
3868.70029	0.06835
3866.77173	0.06810
3864.84316	0.06804
3862.91460	0.06860
3860.98604	0.06858
3859.05747	0.06785
3857.12891	0.06734
3855.20034	0.06760
3853.27178	0.06926
3851.34321	0.07160
3849.41465	0.07165
3847.48608	0.07057
3845.55752	0.07007
3843.62896	0.07083
3841.70039	0.07265
3839.77183	0.07431
3837.84326	0.07493
3835.91470	0.07484
3833.98613	0.07463
3832.05757	0.07441
3830.12900	0.07475
3828.20044	0.07582
3826.27187	0.07700
3824.34331	0.07775
3822.41475	0.07835
3820.48618	0.07980
3818.55762	0.08139
3816.62905	0.08203
3814.70049	0.08286
3812.77192	0.08359
3810.84336	0.08367
3808.91479	0.08401
3806.98623	0.08529
3805.05767	0.08707
3803.12910	0.08876
3801.20054	0.09088
3799.27197	0.09294
3797.34341	0.09361
3795.41484	0.09379
3793.48628	0.09429
3791.55771	0.09510
3789.62915	0.09621
3787.70059	0.09743
3785.77202	0.09875
3783.84346	0.10025
3781.91489	0.10157
3779.98633	0.10290
3778.05776	0.10471
3776.12920	0.10641
3774.20063	0.10794
3772.27207	0.10970
3770.34351	0.11167
3768.41494	0.11401
3766.48638	0.11630
3764.55781	0.11811
3762.62925	0.11963
3760.70068	0.12145
3758.77212	0.12404
3756.84355	0.12687
3754.91499	0.12910
3752.98643	0.13150
3751.05786	0.13518
3749.12930	0.13964
3747.20073	0.14274
3745.27217	0.14524
3743.34360	0.14939
3741.41504	0.15398
3739.48647	0.15777
3737.55791	0.16229
3735.62935	0.16838
3733.70078	0.17508
3731.77222	0.18079
3729.84365	0.18605
3727.91509	0.19136
3725.98652	0.19743
3724.05796	0.20372
3722.12939	0.20907
3720.20083	0.21417
3718.27227	0.21947
3716.34370	0.22500
3714.41514	0.23107
3712.48657	0.23966
3710.55801	0.25387
3708.62944	0.27012
3706.70088	0.28248
3704.77231	0.29319
3702.84375	0.30570
3700.91519	0.32227
3698.98662	0.34065
3697.05806	0.35794
3695.12949	0.37608
3693.20093	0.39551
3691.27236	0.41611
3689.34380	0.44171
3687.41523	0.47425
3685.48667	0.50458
3683.55811	0.53118
3681.62954	0.55921
3679.70098	0.59019
3677.77241	0.62256
3675.84385	0.66097
3673.91528	0.71332
3671.98672	0.75628
3670.05815	0.79387
3668.12959	0.84631
3666.20103	0.89489
3664.27246	0.93513
3662.34390	0.97802
3660.41533	1.02443
3658.48677	1.07049
3656.55820	1.11987
3654.62964	1.17490
3652.70107	1.22087
3650.77251	1.26034
3648.84395	1.31463
3646.91538	1.38254
3644.98682	1.43387
3643.05825	1.47380
3641.12969	1.51474
3639.20112	1.55990
3637.27256	1.60483
3635.34399	1.64778
3633.41543	1.69094
3631.48687	1.73204
3629.55830	1.77335
3627.62974	1.82740
3625.70117	1.87913
3623.77261	1.91367
3621.84404	1.94501
3619.91548	1.98016
3617.98691	2.02385
3616.05835	2.06751
3614.12979	2.10398
3612.20122	2.14201
3610.27266	2.18137
3608.34409	2.22244
3606.41553	2.26657
3604.48696	2.30688
3602.55840	2.34194
3600.62983	2.37926
3598.70127	2.41985
3596.77271	2.46055
3594.84414	2.50346
3592.91558	2.54673
3590.98701	2.58495
3589.05845	2.61965
3587.12988	2.66095
3585.20132	2.70750
3583.27275	2.74917
3581.34419	2.78818
3579.41562	2.82850
3577.48706	2.87082
3575.55850	2.91425
3573.62993	2.95764
3571.70137	2.99814
3569.77280	3.03680
3567.84424	3.07932
3565.91567	3.13201
3563.98711	3.18330
3562.05854	3.22557
3560.12998	3.26696
3558.20142	3.30982
3556.27285	3.35410
3554.34429	3.39885
3552.41572	3.44485
3550.48716	3.49134
3548.55859	3.53570
3546.63003	3.57842
3544.70146	3.62492
3542.77290	3.67439
3540.84434	3.72195
3538.91577	3.76813
3536.98721	3.81353
3535.05864	3.86159
3533.13008	3.91018
3531.20151	3.95692
3529.27295	4.00526
3527.34438	4.05401
3525.41582	4.09758
3523.48726	4.13981
3521.55869	4.18976
3519.63013	4.24572
3517.70156	4.30041
3515.77300	4.34809
3513.84443	4.39077
3511.91587	4.43276
3509.98730	4.47701
3508.05874	4.52715
3506.13018	4.57838
3504.20161	4.62349
3502.27305	4.66576
3500.34448	4.71113
3498.41592	4.75809
3496.48735	4.80662
3494.55879	4.85730
3492.63022	4.90925
3490.70166	4.96331
3488.77310	5.01267
3486.84453	5.05336
3484.91597	5.09386
3482.98740	5.13826
3481.05884	5.19007
3479.13027	5.24771
3477.20171	5.29951
3475.27314	5.34588
3473.34458	5.39517
3471.41602	5.44594
3469.48745	5.49071
3467.55889	5.53753
3465.63032	5.59727
3463.70176	5.65373
3461.77319	5.69250
3459.84463	5.72588
3457.91606	5.76850
3455.98750	5.82664
3454.05894	5.88875
3452.13037	5.94515
3450.20181	5.99964
3448.27324	6.04987
3446.34468	6.09580
3444.41611	6.13661
3442.48755	6.17260
3440.55898	6.20281
3438.63042	6.24110
3436.70186	6.29570
3434.77329	6.34704
3432.84473	6.39471
3430.91616	6.45459
3428.98760	6.51095
3427.05903	6.54559
3425.13047	6.59029
3423.20190	6.64760
3421.27334	6.68839
3419.34478	6.71832
3417.41621	6.76150
3415.48765	6.80743
3413.55908	6.83802
3411.63052	6.87841
3409.70195	6.92882
3407.77339	6.97534
3405.84482	7.01666
3403.91626	7.06393
3401.98770	7.12016
3400.05913	7.15958
3398.13057	7.16477
3396.20200	7.16757
3394.27344	7.20507
3392.34487	7.24622
3390.41631	7.26901
3388.48774	7.29478
3386.55918	7.35680
3384.63062	7.44513
3382.70205	7.52052
3380.77349	7.56111
3378.84492	7.58230
3376.91636	7.59815
3374.98779	7.59312
3373.05923	7.59793
3371.13066	7.60444
3369.20210	7.61188
3367.27354	7.63993
3365.34497	7.67761
3363.41641	7.68717
3361.48784	7.68457
3359.55928	7.73621
3357.63071	7.76828
3355.70215	7.74306
3353.77358	7.72282
3351.84502	7.72861
3349.91646	7.75034
3347.98789	7.77678
3346.05933	7.80026
3344.13076	7.83173
3342.20220	7.89108
3340.27363	7.94458
3338.34507	7.96000
3336.41650	7.95316
3334.48794	7.95815
3332.55937	7.93575
3330.63081	7.87834
3328.70225	7.84371
3326.77368	7.87396
3324.84512	7.96334
3322.91655	8.00116
3320.98799	7.93534
3319.05942	7.87586
3317.13086	7.90350
3315.20229	7.93588
3313.27373	7.94543
3311.34517	7.96192
3309.41660	7.93258
3307.48804	7.89030
3305.55947	7.92999
3303.63091	8.03488
3301.70234	8.06981
3299.77378	8.01496
3297.84521	7.92636
3295.91665	7.88325
3293.98809	7.89794
3292.05952	7.87626
3290.13096	7.87952
3288.20239	7.95627
3286.27383	8.00133
3284.34526	7.99617
3282.41670	8.04150
3280.48813	8.14122
3278.55957	8.18021
3276.63101	8.10312
3274.70244	8.00037
3272.77388	7.95687
3270.84531	7.99892
3268.91675	8.08869
3266.98818	8.08711
3265.05962	8.01149
3263.13105	7.98647
3261.20249	8.00097
3259.27393	8.03959
3257.34536	8.12074
3255.41680	8.13806
3253.48823	8.02131
3251.55967	7.92176
3249.63110	7.90859
3247.70254	7.90650
3245.77397	7.88212
3243.84541	7.86848
3241.91685	7.87974
3239.98828	7.91109
3238.05972	7.95353
3236.13115	7.99053
3234.20259	7.99802
3232.27402	7.95974
3230.34546	7.91816
3228.41689	7.90959
3226.48833	7.89008
3224.55977	7.85228
3222.63120	7.85987
3220.70264	7.91260
3218.77407	7.93708
3216.84551	7.88941
3214.91694	7.80692
3212.98838	7.71890
3211.05981	7.64420
3209.13125	7.63685
3207.20269	7.69282
3205.27412	7.72139
3203.34556	7.67304
3201.41699	7.60716
3199.48843	7.58759
3197.55986	7.61056
3195.63130	7.60727
3193.70273	7.52922
3191.77417	7.45119
3189.84561	7.43760
3187.91704	7.42290
3185.98848	7.36613
3184.05991	7.31758
3182.13135	7.28182
3180.20278	7.23846
3178.27422	7.19275
3176.34565	7.13997
3174.41709	7.06562
3172.48853	6.98211
3170.55996	6.91836
3168.63140	6.88587
3166.70283	6.85467
3164.77427	6.79245
3162.84570	6.71296
3160.91714	6.63883
3158.98857	6.58421
3157.06001	6.53631
3155.13145	6.47362
3153.20288	6.39946
3151.27432	6.32023
3149.34575	6.24266
3147.41719	6.17061
3145.48862	6.10852
3143.56006	6.06178
3141.63149	6.01163
3139.70293	5.93664
3137.77437	5.85609
3135.84580	5.79026
3133.91724	5.73210
3131.98867	5.67220
3130.06011	5.60115
3128.13154	5.52488
3126.20298	5.46378
3124.27441	5.41032
3122.34585	5.33947
3120.41729	5.25453
3118.48872	5.17548
3116.56016	5.10821
3114.63159	5.04309
3112.70303	4.97221
3110.77446	4.89979
3108.84590	4.83114
3106.91733	4.76642
3104.98877	4.70173
3103.06021	4.63291
3101.13164	4.56166
3099.20308	4.49341
3097.27451	4.43095
3095.34595	4.37028
3093.41738	4.30626
3091.48882	4.24190
3089.56025	4.17901
3087.63169	4.11488
3085.70312	4.05057
3083.77456	3.98886
3081.84600	3.93035
3079.91743	3.87187
3077.98887	3.81356
3076.06030	3.75744
3074.13174	3.69960
3072.20317	3.63904
3070.27461	3.58009
3068.34604	3.52429
3066.41748	3.46885
3064.48892	3.41298
3062.56035	3.35908
3060.63179	3.30660
3058.70322	3.25346
3056.77466	3.20048
3054.84609	3.14909
3052.91753	3.09876
3050.98896	3.04825
3049.06040	2.99721
3047.13184	2.94661
3045.20327	2.89672
3043.27471	2.84676
3041.34614	2.79761
3039.41758	2.75027
3037.48901	2.70404
3035.56045	2.65843
3033.63188	2.61305
3031.70332	2.56789
3029.77476	2.52394
3027.84619	2.48131
3025.91763	2.43903
3023.98906	2.39667
3022.06050	2.35481
3020.13193	2.31404
3018.20337	2.27407
3016.27480	2.23416
3014.34624	2.19475
3012.41768	2.15640
3010.48911	2.11864
3008.56055	2.08160
3006.63198	2.04602
3004.70342	2.01118
3002.77485	1.97576
3000.84629	1.94052
2998.91772	1.90693
2996.98916	1.87484
2995.06060	1.84323
2993.13203	1.81140
2991.20347	1.77972
2989.27490	1.74920
2987.34634	1.72035
2985.41777	1.69272
2983.48921	1.66543
2981.56064	1.63826
2979.63208	1.61150
2977.70352	1.58511
2975.77495	1.55920
2973.84639	1.53405
2971.91782	1.50937
2969.98926	1.48500
2968.06069	1.46131
2966.13213	1.43824
2964.20356	1.41516
2962.27500	1.39190
2960.34644	1.36869
2958.41787	1.34509
2956.48931	1.32078
2954.56074	1.29658
2952.63218	1.27321
2950.70361	1.25037
2948.77505	1.22759
2946.84648	1.20512
2944.91792	1.18365
2942.98936	1.16317
2941.06079	1.14323
2939.13223	1.12376
2937.20366	1.10463
2935.27510	1.08546
2933.34653	1.06597
2931.41797	1.04616
2929.48940	1.02676
2927.56084	1.00839
2925.63228	0.99051
2923.70371	0.97256
2921.77515	0.95448
2919.84658	0.93628
2917.91802	0.91836
2915.98945	0.90086
2914.06089	0.88353
2912.13232	0.86688
2910.20376	0.85113
2908.27520	0.83588
2906.34663	0.82120
2904.41807	0.80682
2902.48950	0.79248
2900.56094	0.77851
2898.63237	0.76479
2896.70381	0.75115
2894.77524	0.73799
2892.84668	0.72561
2890.91812	0.71393
2888.98955	0.70262
2887.06099	0.69148
2885.13242	0.68072
2883.20386	0.67045
2881.27529	0.66063
2879.34673	0.65121
2877.41816	0.64194
2875.48960	0.63253
2873.56104	0.62268
2871.63247	0.61221
2869.70391	0.60125
2867.77534	0.59009
2865.84678	0.57886
2863.91821	0.56755
2861.98965	0.55652
2860.06108	0.54612
2858.13252	0.53631
2856.20396	0.52674
2854.27539	0.51722
2852.34683	0.50801
2850.41826	0.49905
2848.48970	0.49016
2846.56113	0.48173
2844.63257	0.47415
2842.70400	0.46731
2840.77544	0.46073
2838.84687	0.45434
2836.91831	0.44824
2834.98975	0.44212
2833.06118	0.43584
2831.13262	0.42964
2829.20405	0.42373
2827.27549	0.41808
2825.34692	0.41243
2823.41836	0.40663
2821.48979	0.40073
2819.56123	0.39468
2817.63267	0.38864
2815.70410	0.38287
2813.77554	0.37736
2811.84697	0.37200
2809.91841	0.36672
2807.98984	0.36154
2806.06128	0.35644
2804.13271	0.35130
2802.20415	0.34607
2800.27559	0.34091
2798.34702	0.33609
2796.41846	0.33149
2794.48989	0.32689
2792.56133	0.32227
2790.63276	0.31777
2788.70420	0.31344
2786.77563	0.30909
2784.84707	0.30475
2782.91851	0.30057
2780.98994	0.29654
2779.06138	0.29256
2777.13281	0.28861
2775.20425	0.28465
2773.27568	0.28076
2771.34712	0.27703
2769.41855	0.27333
2767.48999	0.26961
2765.56143	0.26609
2763.63286	0.26270
2761.70430	0.25923
2759.77573	0.25587
2757.84717	0.25275
2755.91860	0.24970
2753.99004	0.24667
2752.06147	0.24373
2750.13291	0.24087
2748.20435	0.23802
2746.27578	0.23510
2744.34722	0.23225
2742.41865	0.22953
2740.49009	0.22695
2738.56152	0.22452
2736.63296	0.22212
2734.70439	0.21964
2732.77583	0.21705
2730.84727	0.21439
2728.91870	0.21195
2726.99014	0.20981
2725.06157	0.20774
2723.13301	0.20553
2721.20444	0.20326
2719.27588	0.20118
2717.34731	0.19935
2715.41875	0.19764
2713.49019	0.19593
2711.56162	0.19421
2709.63306	0.19239
2707.70449	0.19060
2705.77593	0.18894
2703.84736	0.18733
2701.91880	0.18573
2699.99023	0.18410
2698.06167	0.18249
2696.13311	0.18109
2694.20454	0.17981
2692.27598	0.17844
2690.34741	0.17702
2688.41885	0.17567
2686.49028	0.17440
2684.56172	0.17323
2682.63315	0.17217
2680.70459	0.17113
2678.77603	0.17001
2676.84746	0.16886
2674.91890	0.16782
2672.99033	0.16684
2671.06177	0.16583
2669.13320	0.16477
2667.20464	0.16369
2665.27607	0.16276
2663.34751	0.16210
2661.41895	0.16142
2659.49038	0.16049
2657.56182	0.15960
2655.63325	0.15891
2653.70469	0.15826
2651.77612	0.15760
2649.84756	0.15690
2647.91899	0.15615
2645.99043	0.15537
2644.06187	0.15477
2642.13330	0.15438
2640.20474	0.15399
2638.27617	0.15347
2636.34761	0.15292
2634.41904	0.15236
2632.49048	0.15183
2630.56191	0.15151
2628.63335	0.15133
2626.70479	0.15111
2624.77622	0.15080
2622.84766	0.15035
2620.91909	0.14976
2618.99053	0.14930
2617.06196	0.14914
2615.13340	0.14905
2613.20483	0.14886
2611.27627	0.14868
2609.34771	0.14858
2607.41914	0.14853
2605.49058	0.14848
2603.56201	0.14831
2601.63345	0.14810
2599.70488	0.14810
2597.77632	0.14835
2595.84775	0.14865
2593.91919	0.14881
2591.99062	0.14884
2590.06206	0.14881
2588.13350	0.14880
2586.20493	0.14886
2584.27637	0.14900
2582.34780	0.14917
2580.41924	0.14937
2578.49067	0.14959
2576.56211	0.14974
2574.63354	0.14990
2572.70498	0.15025
2570.77642	0.15063
2568.84785	0.15089
2566.91929	0.15115
2564.99072	0.15157
2563.06216	0.15219
2561.13359	0.15279
2559.20503	0.15316
2557.27646	0.15340
2555.34790	0.15384
2553.41934	0.15440
2551.49077	0.15487
2549.56221	0.15539
2547.63364	0.15602
2545.70508	0.15654
2543.77651	0.15693
2541.84795	0.15743
2539.91938	0.15805
2537.99082	0.15870
2536.06226	0.15935
2534.13369	0.16006
2532.20513	0.16080
2530.27656	0.16152
2528.34800	0.16218
2526.41943	0.16277
2524.49087	0.16326
2522.56230	0.16373
2520.63374	0.16435
2518.70518	0.16515
2516.77661	0.16601
2514.84805	0.16683
2512.91948	0.16758
2510.99092	0.16838
2509.06235	0.16932
2507.13379	0.17027
2505.20522	0.17108
2503.27666	0.17176
2501.34810	0.17240
2499.41953	0.17309
2497.49097	0.17383
2495.56240	0.17457
2493.63384	0.17529
2491.70527	0.17604
2489.77671	0.17696
2487.84814	0.17797
2485.91958	0.17891
2483.99102	0.17976
2482.06245	0.18067
2480.13389	0.18154
2478.20532	0.18233
2476.27676	0.18319
2474.34819	0.18413
2472.41963	0.18511
2470.49106	0.18600
2468.56250	0.18671
2466.63394	0.18736
2464.70537	0.18810
2462.77681	0.18906
2460.84824	0.19020
2458.91968	0.19128
2456.99111	0.19216
2455.06255	0.19305
2453.13398	0.19409
2451.20542	0.19509
2449.27686	0.19594
2447.34829	0.19676
2445.41973	0.19761
2443.49116	0.19850
2441.56260	0.19958
2439.63403	0.20081
2437.70547	0.20195
2435.77690	0.20284
2433.84834	0.20369
2431.91978	0.20475
2429.99121	0.20586
2428.06265	0.20688
2426.13408	0.20795
2424.20552	0.20906
2422.27695	0.21012
2420.34839	0.21122
2418.41982	0.21233
2416.49126	0.21333
2414.56270	0.21432
2412.63413	0.21538
2410.70557	0.21649
2408.77700	0.21762
2406.84844	0.21874
2404.91987	0.21984
2402.99131	0.22098
2401.06274	0.22213
2399.13418	0.22333
2397.20562	0.22461
2395.27705	0.22588
2393.34849	0.22714
2391.41992	0.22862
2389.49136	0.23046
2387.56279	0.23267
2385.63423	0.23573
2383.70566	0.24046
2381.77710	0.24712
2379.84854	0.25529
2377.91997	0.26456
2375.99141	0.27500
2374.06284	0.28692
2372.13428	0.30022
2370.20571	0.31448
2368.27715	0.32902
2366.34858	0.34291
2364.42002	0.35560
2362.49146	0.36658
2360.56289	0.37383
2358.63433	0.37478
2356.70576	0.36949
2354.77720	0.35946
2352.84863	0.34582
2350.92007	0.33145
2348.99150	0.32275
2347.06294	0.32357
2345.13437	0.33372
2343.20581	0.34680
2341.27725	0.35389
2339.34868	0.35562
2337.42012	0.35564
2335.49155	0.35490
2333.56299	0.35370
2331.63442	0.35307
2329.70586	0.35251
2327.77729	0.35072
2325.84873	0.34786
2323.92017	0.34479
2321.99160	0.34136
2320.06304	0.33723
2318.13447	0.33279
2316.20591	0.32888
2314.27734	0.32646
2312.34878	0.32536
2310.42021	0.32435
2308.49165	0.32264
2306.56309	0.32037
2304.63452	0.31833
2302.70596	0.31737
2300.77739	0.31728
2298.84883	0.31735
2296.92026	0.31746
2294.99170	0.31759
2293.06313	0.31770
2291.13457	0.31786
2289.20601	0.31814
2287.27744	0.31862
2285.34888	0.31934
2283.42031	0.32035
2281.49175	0.32190
2279.56318	0.32412
2277.63462	0.32667
2275.70605	0.32911
2273.77749	0.33136
2271.84893	0.33354
2269.92036	0.33565
2267.99180	0.33774
2266.06323	0.33968
2264.13467	0.34139
2262.20610	0.34317
2260.27754	0.34510
2258.34897	0.34699
2256.42041	0.34880
2254.49185	0.35068
2252.56328	0.35259
2250.63472	0.35447
2248.70615	0.35643
2246.77759	0.35846
2244.84902	0.36042
2242.92046	0.36239
2240.99189	0.36448
2239.06333	0.36651
2237.13477	0.36848
2235.20620	0.37058
2233.27764	0.37284
2231.34907	0.37512
2229.42051	0.37733
2227.49194	0.37956
2225.56338	0.38173
2223.63481	0.38383
2221.70625	0.38613
2219.77769	0.38859
2217.84912	0.39086
2215.92056	0.39291
2213.99199	0.39496
2212.06343	0.39709
2210.13486	0.39918
2208.20630	0.40114
2206.27773	0.40308
2204.34917	0.40519
2202.42061	0.40735
2200.49204	0.40934
2198.56348	0.41125
2196.63491	0.41320
2194.70635	0.41519
2192.77778	0.41712
2190.84922	0.41902
2188.92065	0.42097
2186.99209	0.42284
2185.06353	0.42453
2183.13496	0.42622
2181.20640	0.42794
2179.27783	0.42958
2177.34927	0.43109
2175.42070	0.43250
2173.49214	0.43398
2171.56357	0.43557
2169.63501	0.43712
2167.70645	0.43857
2165.77788	0.43986
2163.84932	0.44091
2161.92075	0.44178
2159.99219	0.44275
2158.06362	0.44395
2156.13506	0.44513
2154.20649	0.44602
2152.27793	0.44674
2150.34937	0.44736
2148.42080	0.44795
2146.49224	0.44862
2144.56367	0.44923
2142.63511	0.44964
2140.70654	0.44996
2138.77798	0.45025
2136.84941	0.45046
2134.92085	0.45060
2132.99229	0.45064
2131.06372	0.45051
2129.13516	0.45022
2127.20659	0.44991
2125.27803	0.44965
2123.34946	0.44928
2121.42090	0.44873
2119.49233	0.44808
2117.56377	0.44743
2115.63521	0.44688
2113.70664	0.44628
2111.77808	0.44541
2109.84951	0.44436
2107.92095	0.44333
2105.99238	0.44227
2104.06382	0.44110
2102.13525	0.43987
2100.20669	0.43860
2098.27812	0.43724
2096.34956	0.43580
2094.42100	0.43418
2092.49243	0.43251
2090.56387	0.43095
2088.63530	0.42933
2086.70674	0.42752
2084.77817	0.42561
2082.84961	0.42369
2080.92104	0.42168
2078.99248	0.41959
2077.06392	0.41756
2075.13535	0.41554
2073.20679	0.41340
2071.27822	0.41121
2069.34966	0.40899
2067.42109	0.40666
2065.49253	0.40433
2063.56396	0.40204
2061.63540	0.39970
2059.70684	0.39726
2057.77827	0.39479
2055.84971	0.39222
2053.92114	0.38949
2051.99258	0.38672
2050.06401	0.38401
2048.13545	0.38141
2046.20688	0.37889
2044.27832	0.37633
2042.34976	0.37371
2040.42119	0.37105
2038.49263	0.36836
2036.56406	0.36562
2034.63550	0.36277
2032.70693	0.35986
2030.77837	0.35708
2028.84980	0.35441
2026.92124	0.35178
2024.99268	0.34909
2023.06411	0.34635
2021.13555	0.34368
2019.20698	0.34104
2017.27842	0.33825
2015.34985	0.33530
2013.42129	0.33242
2011.49272	0.32971
2009.56416	0.32708
2007.63560	0.32443
2005.70703	0.32177
2003.77847	0.31915
2001.84990	0.31664
1999.92134	0.31417
1997.99277	0.31156
1996.06421	0.30886
1994.13564	0.30633
1992.20708	0.30388
1990.27852	0.30129
1988.34995	0.29872
1986.42139	0.29627
1984.49282	0.29391
1982.56426	0.29157
1980.63569	0.28921
1978.70713	0.28687
1976.77856	0.28462
1974.85000	0.28250
1972.92144	0.28035
1970.99287	0.27814
1969.06431	0.27613
1967.13574	0.27427
1965.20718	0.27230
1963.27861	0.27025
1961.35005	0.26821
1959.42148	0.26620
1957.49292	0.26434
1955.56436	0.26257
1953.63579	0.26077
1951.70723	0.25900
1949.77866	0.25743
1947.85010	0.25602
1945.92153	0.25464
1943.99297	0.25328
1942.06440	0.25187
1940.13584	0.25023
1938.20728	0.24862
1936.27871	0.24732
1934.35015	0.24610
1932.42158	0.24479
1930.49302	0.24354
1928.56445	0.24241
1926.63589	0.24135
1924.70732	0.24048
1922.77876	0.23966
1920.85020	0.23865
1918.92163	0.23762
1916.99307	0.23665
1915.06450	0.23572
1913.13594	0.23490
1911.20737	0.23425
1909.27881	0.23366
1907.35024	0.23297
1905.42168	0.23221
1903.49312	0.23152
1901.56455	0.23090
1899.63599	0.23031
1897.70742	0.22986
1895.77886	0.22959
1893.85029	0.22935
1891.92173	0.22906
1889.99316	0.22893
1888.06460	0.22873
1886.13604	0.22835
1884.20747	0.22803
1882.27891	0.22781
1880.35034	0.22766
1878.42178	0.22758
1876.49321	0.22758
1874.56465	0.22759
1872.63608	0.22773
1870.70752	0.22804
1868.77896	0.22854
1866.85039	0.22879
1864.92183	0.22871
1862.99326	0.22868
1861.06470	0.22879
1859.13613	0.22908
1857.20757	0.22946
1855.27900	0.22994
1853.35044	0.23044
1851.42187	0.23105
1849.49331	0.23176
1847.56475	0.23252
1845.63618	0.23342
1843.70762	0.23450
1841.77905	0.23523
1839.85049	0.23554
1837.92192	0.23617
1835.99336	0.23704
1834.06479	0.23796
1832.13623	0.23903
1830.20767	0.24057
1828.27910	0.24216
1826.35054	0.24324
1824.42197	0.24447
1822.49341	0.24570
1820.56484	0.24684
1818.63628	0.24816
1816.70771	0.24981
1814.77915	0.25148
1812.85059	0.25327
1810.92202	0.25537
1808.99346	0.25745
1807.06489	0.25926
1805.13633	0.26101
1803.20776	0.26319
1801.27920	0.26583
1799.35063	0.26870
1797.42207	0.27121
1795.49351	0.27361
1793.56494	0.27648
1791.63638	0.28020
1789.70781	0.28364
1787.77925	0.28614
1785.85068	0.28912
1783.92212	0.29270
1781.99355	0.29662
1780.06499	0.30088
1778.13643	0.30520
1776.20786	0.30910
1774.27930	0.31325
1772.35073	0.31899
1770.42217	0.32537
1768.49360	0.33075
1766.56504	0.33585
1764.63647	0.34114
1762.70791	0.34702
1760.77935	0.35446
1758.85078	0.36140
1756.92222	0.36835
1754.99365	0.37603
1753.06509	0.38305
1751.13652	0.39133
1749.20796	0.40177
1747.27939	0.41212
1745.35083	0.42111
1743.42227	0.43051
1741.49370	0.44097
1739.56514	0.45343
1737.63657	0.46589
1735.70801	0.47659
1733.77944	0.49273
1731.85088	0.51244
1729.92231	0.52811
1727.99375	0.54378
1726.06519	0.56054
1724.13662	0.57880
1722.20806	0.59850
1720.27949	0.61663
1718.35093	0.63791
1716.42236	0.66989
1714.49380	0.70071
1712.56523	0.72558
1710.63667	0.74954
1708.70811	0.77540
1706.77954	0.80484
1704.85098	0.83992
1702.92241	0.87110
1700.99385	0.90198
1699.06528	0.94871
1697.13672	0.99239
1695.20815	1.03756
1693.27959	1.08187
1691.35103	1.11770
1689.42246	1.15920
1687.49390	1.20322
1685.56533	1.24532
1683.63677	1.31065
1681.70820	1.37994
1679.77964	1.42443
1677.85107	1.46664
1675.92251	1.51541
1673.99395	1.57601
1672.06538	1.63012
1670.13682	1.68294
1668.20825	1.75227
1666.27969	1.80992
1664.35112	1.85957
1662.42256	1.92288
1660.49399	1.99527
1658.56543	2.05124
1656.63687	2.09485
1654.70830	2.13221
1652.77974	2.19080
1650.85117	2.25091
1648.92261	2.27155
1646.99404	2.29527
1645.06548	2.32298
1643.13691	2.34063
1641.20835	2.34808
1639.27979	2.35341
1637.35122	2.35383
1635.42266	2.34972
1633.49409	2.34519
1631.56553	2.33383
1629.63696	2.31498
1627.70840	2.28372
1625.77983	2.24907
1623.85127	2.20479
1621.92271	2.14998
1619.99414	2.10168
1618.06558	2.05427
1616.13701	1.98757
1614.20845	1.92096
1612.27988	1.87004
1610.35132	1.81706
1608.42275	1.76063
1606.49419	1.70552
1604.56562	1.65471
1602.63706	1.60539
1600.70850	1.55697
1598.77993	1.51243
1596.85137	1.47081
1594.92280	1.43062
1592.99424	1.39203
1591.06567	1.35672
1589.13711	1.32372
1587.20854	1.29318
1585.27998	1.26501
1583.35142	1.23889
1581.42285	1.21543
1579.49429	1.19575
1577.56572	1.17850
1575.63716	1.15845
1573.70859	1.14161
1571.78003	1.13104
1569.85146	1.12044
1567.92290	1.10927
1565.99434	1.10200
1564.06577	1.09794
1562.13721	1.09539
1560.20864	1.09456
1558.28008	1.09874
1556.35151	1.10521
1554.42295	1.10898
1552.49438	1.11238
1550.56582	1.11386
1548.63726	1.11226
1546.70869	1.10739
1544.78013	1.09868
1542.85156	1.08607
1540.92300	1.06656
1538.99443	1.03618
1537.06587	1.01443
1535.13730	0.99919
1533.20874	0.97848
1531.28018	0.95654
1529.35161	0.94026
1527.42305	0.92452
1525.49448	0.90854
1523.56592	0.89543
1521.63735	0.88334
1519.70879	0.87142
1517.78022	0.86110
1515.85166	0.84848
1513.92310	0.83509
1511.99453	0.82352
1510.06597	0.81302
1508.13740	0.80252
1506.20884	0.78615
1504.28027	0.77259
1502.35171	0.76545
1500.42314	0.75909
1498.49458	0.75207
1496.56602	0.74384
1494.63745	0.73566
1492.70889	0.72946
1490.78032	0.72437
1488.85176	0.71869
1486.92319	0.71302
1484.99463	0.70840
1483.06606	0.70492
1481.13750	0.70242
1479.20894	0.70084
1477.28037	0.70011
1475.35181	0.70000
1473.42324	0.70033
1471.49468	0.70020
1469.56611	0.69885
1467.63755	0.69688
1465.70898	0.69478
1463.78042	0.69296
1461.85186	0.69196
1459.92329	0.69169
1457.99473	0.69180
1456.06616	0.69132
1454.13760	0.68926
1452.20903	0.68650
1450.28047	0.68362
1448.35190	0.68092
1446.42334	0.67806
1444.49478	0.67511
1442.56621	0.67229
1440.63765	0.66926
1438.70908	0.66586
1436.78052	0.66182
1434.85195	0.65762
1432.92339	0.65447
1430.99482	0.65236
1429.06626	0.65102
1427.13770	0.65038
1425.20913	0.65048
1423.28057	0.65122
1421.35200	0.65193
1419.42344	0.65248
1417.49487	0.65269
1415.56631	0.65207
1413.63774	0.65146
1411.70918	0.65160
1409.78062	0.65269
1407.85205	0.65441
1405.92349	0.65647
1403.99492	0.65837
1402.06636	0.65912
1400.13779	0.65862
1398.20923	0.65711
1396.28066	0.65468
1394.35210	0.65091
1392.42354	0.64616
1390.49497	0.64162
1388.56641	0.63717
1386.63784	0.63201
1384.70928	0.62638
1382.78071	0.62102
1380.85215	0.61602
1378.92358	0.61176
1376.99502	0.60864
1375.06646	0.60652
1373.13789	0.60494
1371.20933	0.60379
1369.28076	0.60286
1367.35220	0.60164
1365.42363	0.60006
1363.49507	0.59852
1361.56650	0.59707
1359.63794	0.59550
1357.70937	0.59398
1355.78081	0.59271
1353.85225	0.59178
1351.92368	0.59107
1349.99512	0.59038
1348.06655	0.58967
1346.13799	0.58886
1344.20942	0.58795
1342.28086	0.58714
1340.35229	0.58664
1338.42373	0.58620
1336.49517	0.58561
1334.56660	0.58519
1332.63804	0.58524
1330.70947	0.58564
1328.78091	0.58620
1326.85234	0.58695
1324.92378	0.58789
1322.99521	0.58883
1321.06665	0.58957
1319.13809	0.59008
1317.20952	0.59037
1315.28096	0.59046
1313.35239	0.59032
1311.42383	0.58994
1309.49526	0.58948
1307.56670	0.58915
1305.63813	0.58890
1303.70957	0.58847
1301.78101	0.58781
1299.85244	0.58687
1297.92388	0.58560
1295.99531	0.58426
1294.06675	0.58313
1292.13818	0.58196
1290.20962	0.58068
1288.28105	0.57958
1286.35249	0.57851
1284.42393	0.57712
1282.49536	0.57553
1280.56680	0.57406
1278.63823	0.57278
1276.70967	0.57153
1274.78110	0.57033
1272.85254	0.56934
1270.92397	0.56853
1268.99541	0.56768
1267.06685	0.56683
1265.13828	0.56598
1263.20972	0.56503
1261.28115	0.56399
1259.35259	0.56307
1257.42402	0.56249
1255.49546	0.56221
1253.56689	0.56202
1251.63833	0.56199
1249.70977	0.56224
1247.78120	0.56246
1245.85264	0.56234
1243.92407	0.56185
1241.99551	0.56098
1240.06694	0.55963
1238.13838	0.55784
1236.20981	0.55570
1234.28125	0.55335
1232.35269	0.55098
1230.42412	0.54872
1228.49556	0.54658
1226.56699	0.54465
1224.63843	0.54296
1222.70986	0.54127
1220.78130	0.53954
1218.85273	0.53798
1216.92417	0.53668
1214.99561	0.53568
1213.06704	0.53490
1211.13848	0.53411
1209.20991	0.53335
1207.28135	0.53265
1205.35278	0.53182
1203.42422	0.53085
1201.49565	0.52992
1199.56709	0.52903
1197.63853	0.52816
1195.70996	0.52745
1193.78140	0.52694
1191.85283	0.52656
1189.92427	0.52643
1187.99570	0.52634
1186.06714	0.52606
1184.13857	0.52598
1182.21001	0.52653
1180.28145	0.52758
1178.35288	0.52891
1176.42432	0.53039
1174.49575	0.53176
1172.56719	0.53273
1170.63862	0.53314
1168.71006	0.53302
1166.78149	0.53273
1164.85293	0.53243
1162.92437	0.53204
1160.99580	0.53161
1159.06724	0.53116
1157.13867	0.53053
1155.21011	0.52954
1153.28154	0.52806
1151.35298	0.52610
1149.42441	0.52382
1147.49585	0.52135
1145.56729	0.51858
1143.63872	0.51564
1141.71016	0.51304
1139.78159	0.51103
1137.85303	0.50939
1135.92446	0.50805
1133.99590	0.50710
1132.06733	0.50643
1130.13877	0.50594
1128.21021	0.50543
1126.28164	0.50470
1124.35308	0.50376
1122.42451	0.50288
1120.49595	0.50227
1118.56738	0.50186
1116.63882	0.50172
1114.71025	0.50193
1112.78169	0.50217
1110.85312	0.50239
1108.92456	0.50304
1106.99600	0.50412
1105.06743	0.50533
1103.13887	0.50660
1101.21030	0.50803
1099.28174	0.50987
1097.35317	0.51237
1095.42461	0.51543
1093.49604	0.51890
1091.56748	0.52294
1089.63892	0.52780
1087.71035	0.53352
1085.78179	0.53997
1083.85322	0.54693
1081.92466	0.55364
1079.99609	0.55890
1078.06753	0.56181
1076.13896	0.56212
1074.21040	0.55991
1072.28184	0.55528
1070.35327	0.54883
1068.42471	0.54171
1066.49614	0.53485
1064.56758	0.52856
1062.63901	0.52278
1060.71045	0.51768
1058.78188	0.51322
1056.85332	0.50912
1054.92476	0.50547
1052.99619	0.50227
1051.06763	0.49927
1049.13906	0.49679
1047.21050	0.49501
1045.28193	0.49351
1043.35337	0.49213
1041.42480	0.49104
1039.49624	0.49018
1037.56768	0.48954
1035.63911	0.48916
1033.71055	0.48888
1031.78198	0.48851
1029.85342	0.48796
1027.92485	0.48725
1025.99629	0.48670
1024.06772	0.48657
1022.13916	0.48667
1020.21060	0.48682
1018.28203	0.48722
1016.35347	0.48783
1014.42490	0.48831
1012.49634	0.48863
1010.56777	0.48914
1008.63921	0.49006
1006.71064	0.49143
1004.78208	0.49327
1002.85352	0.49556
1000.92495	0.49829
998.99639	0.50161
997.06782	0.50546
995.13926	0.50956
993.21069	0.51369
991.28213	0.51740
989.35356	0.51995
987.42500	0.52113
985.49644	0.52148
983.56787	0.52171
981.63931	0.52231
979.71074	0.52343
977.78218	0.52507
975.85361	0.52716
973.92505	0.52961
971.99648	0.53254
970.06792	0.53600
968.13936	0.53981
966.21079	0.54388
964.28223	0.54829
962.35366	0.55313
960.42510	0.55823
958.49653	0.56337
956.56797	0.56880
954.63940	0.57463
952.71084	0.58063
950.78228	0.58698
948.85371	0.59361
946.92515	0.59992
944.99658	0.60584
943.06802	0.61174
941.13945	0.61785
939.21089	0.62404
937.28232	0.63018
935.35376	0.63622
933.42520	0.64197
931.49663	0.64717
929.56807	0.65215
927.63950	0.65743
925.71094	0.66320
923.78237	0.66972
921.85381	0.67673
919.92524	0.68363
917.99668	0.69022
916.06812	0.69694
914.13955	0.70440
912.21099	0.71220
910.28242	0.71988
908.35386	0.72788
906.42529	0.73646
904.49673	0.74547
902.56816	0.75442
900.63960	0.76308
898.71104	0.77209
896.78247	0.78231
894.85391	0.79330
892.92534	0.80348
890.99678	0.81255
889.06821	0.82229
887.13965	0.83353
885.21108	0.84541
883.28252	0.85669
881.35396	0.86602
879.42539	0.87540
877.49683	0.88814
875.56826	0.90305
873.63970	0.91694
871.71113	0.92803
869.78257	0.93690
867.85400	0.94557
865.92544	0.95529
863.99687	0.96632
862.06831	0.97833
860.13975	0.99085
858.21118	1.00369
856.28262	1.01589
854.35405	1.02676
852.42549	1.03832
850.49692	1.05110
848.56836	1.06250
846.63979	1.07241
844.71123	1.08222
842.78267	1.09243
840.85410	1.10389
838.92554	1.11549
836.99697	1.12565
835.06841	1.13501
833.13984	1.14412
831.21128	1.15340
829.28271	1.16338
827.35415	1.17466
825.42559	1.18716
823.49702	1.19493
821.56846	1.19709
819.63989	1.20484
817.71133	1.21653
815.78276	1.22279
813.85420	1.22807
811.92563	1.23764
809.99707	1.24309
808.06851	1.23941
806.13994	1.23851
804.21138	1.24091
802.28281	1.24247
800.35425	1.24842
798.42568	1.25731
796.49712	1.26290
794.56855	1.26314
792.63999	1.26668
790.71143	1.26938
788.78286	1.26256
786.85430	1.25224
784.92573	1.24518
782.99717	1.25160
781.06860	1.25581
779.14004	1.22142
777.21147	1.17761
775.28291	1.19022
773.35435	1.24988
771.42578	1.25986
769.49722	1.23030
767.56865	1.22107
765.64009	1.18122
763.71152	1.10202
761.78296	1.04961
759.85439	1.04627
757.92583	1.04578
755.99727	0.99829
754.06870	0.93039
752.14014	0.88308
750.21157	0.86492
748.28301	0.84401
746.35444	0.80293
744.42588	0.76953
742.49731	0.72188
740.56875	0.60783
738.64019	0.49942
736.71162	0.46450
734.78306	0.44368
732.85449	0.30997
730.92593	0.08584
728.99736	-0.33561
727.06880	4.36241
725.14023	4.35084
723.21167	4.33927
721.28311	4.32770
719.35454	-0.49945
717.42598	-0.04513
715.49741	0.18893
713.56885	0.34242
711.64028	0.36392
709.71172	0.32324
707.78315	0.33381
705.85459	0.39309
703.92603	0.42305
701.99746	0.40419
700.06890	0.37537
698.14033	0.40267
696.21177	0.49764
694.28320	0.59116
692.35464	0.61919
690.42607	0.58045
688.49751	0.51855
686.56895	0.48983
684.64038	0.49662
682.71182	0.49151
680.78325	0.48633
678.85469	0.54679
676.92612	0.61872
674.99756	0.55560
673.06899	0.45599
671.14043	0.40299
669.21187	0.37376
667.28330	0.37026
665.35474	0.38442
663.42617	0.37547
661.49761	0.37853
659.56904	0.41879
657.64048	0.44058
655.71191	0.46523
653.78335	0.48428
651.85479	0.42193
649.92622	0.36357
647.99766	0.36333
646.06909	0.38722
644.14053	0.43003
642.21196	0.46296
640.28340	0.43207
638.35483	0.39236
636.42627	0.38354
634.49771	0.40287
632.56914	0.43586
630.64058	0.43321
628.71201	0.40357
626.78345	0.40057
624.85488	0.40199
622.92632	0.37479
620.99775	0.36902
619.06919	0.41991
617.14062	0.50368
615.21206	0.51352
613.28350	0.43934
611.35493	0.39121
609.42637	0.39620
607.49780	0.40494
605.56924	0.37845
603.64067	0.37443
601.71211	0.42267
599.78354	0.44286
597.85498	0.41549
595.92642	0.39443
593.99785	0.38739
592.06929	0.37285
590.14072	0.35300
588.21216	0.36825
586.28359	0.41697
584.35503	0.45254
582.42646	0.44554
580.49790	0.38940
578.56934	0.32276
576.64077	0.32159
574.71221	0.39046
572.78364	0.47230
570.85508	0.47007
568.92651	0.40831
566.99795	0.37046
565.06938	0.36991
563.14082	0.40490
561.21226	0.45055
559.28369	0.43144
557.35513	0.39618
555.42656	0.37900
553.49800	0.34533
551.56943	0.32228
549.64087	0.32194
547.71230	0.29726
545.78374	0.25684
543.85518	0.24386
541.92661	0.27626
539.99805	0.33522
538.06948	0.37335
536.14092	0.39781
534.21235	0.42665
532.28379	0.40811
530.35522	0.34779
528.42666	0.29805
526.49810	0.28323
524.56953	0.30573
522.64097	0.35205
520.71240	0.42535
518.78384	0.48902
516.85527	0.44289
514.92671	0.39741
512.99814	0.36879
511.06958	0.31724
509.14102	0.28299
507.21245	0.27221
505.28389	0.25636
503.35532	0.23556
501.42676	0.24099
499.49819	0.27403
