3997.91411	0.07164
3995.98555	0.07165
3994.05698	0.07154
3992.12842	0.07194
3990.19985	0.07252
3988.27129	0.07293
3986.34272	0.07317
3984.41416	0.07344
3982.48560	0.07386
3980.55703	0.07424
3978.62847	0.07435
3976.69990	0.07424
3974.77134	0.07407
3972.84277	0.07397
3970.91421	0.07403
3968.98564	0.07437
3967.05708	0.07494
3965.12852	0.07532
3963.19995	0.07536
3961.27139	0.07542
3959.34282	0.07553
3957.41426	0.07550
3955.48569	0.07546
3953.55713	0.07528
3951.62856	0.07485
3949.70000	0.07474
3947.77144	0.07522
3945.84287	0.07563
3943.91431	0.07565
3941.98574	0.07557
3940.05718	0.07545
3938.12861	0.07532
3936.20005	0.07527
3934.27148	0.07520
3932.34292	0.07509
3930.41436	0.07509
3928.48579	0.07526
3926.55723	0.07549
3924.62866	0.07546
3922.70010	0.07481
3920.77153	0.07415
3918.84297	0.07408
3916.91440	0.07437
3914.98584	0.07462
3913.05728	0.07465
3911.12871	0.07444
3909.20015	0.07402
3907.27158	0.07375
3905.34302	0.07400
3903.41445	0.07455
3901.48589	0.07468
3899.55732	0.07454
3897.62876	0.07457
3895.70020	0.07452
3893.77163	0.07431
3891.84307	0.07422
3889.91450	0.07469
3887.98594	0.07520
3886.05737	0.07521
3884.12881	0.07516
3882.20024	0.07533
3880.27168	0.07561
3878.34312	0.07572
3876.41455	0.07548
3874.48599	0.07523
3872.55742	0.07529
3870.62886	0.07558
3868.70029	0.07604
3866.77173	0.07644
3864.84316	0.07642
3862.91460	0.07600
3860.98604	0.07599
3859.05747	0.07664
3857.12891	0.07701
3855.20034	0.07678
3853.27178	0.07698
3851.34321	0.07864
3849.41465	0.07994
3847.48608	0.08050
3845.55752	0.08091
3843.62896	0.08122
3841.70039	0.08128
3839.77183	0.08125
3837.84326	0.08173
3835.91470	0.08301
3833.98613	0.08428
3832.05757	0.08485
3830.12900	0.08508
3828.20044	0.08546
3826.27187	0.08617
3824.34331	0.08712
3822.41475	0.08786
3820.48618	0.08893
3818.55762	0.09081
3816.62905	0.09234
3814.70049	0.09316
3812.77192	0.09360
3810.84336	0.09414
3808.91479	0.09481
3806.98623	0.09546
3805.05767	0.09610
3803.12910	0.09678
3801.20054	0.09829
3799.27197	0.10026
3797.34341	0.10121
3795.41484	0.10253
3793.48628	0.10462
3791.55771	0.10616
3789.62915	0.10721
3787.70059	0.10841
3785.77202	0.10988
3783.84346	0.11146
3781.91489	0.11304
3779.98633	0.11454
3778.05776	0.11625
3776.12920	0.11799
3774.20063	0.11952
3772.27207	0.12092
3770.34351	0.12230
3768.41494	0.12375
3766.48638	0.12530
3764.55781	0.12750
3762.62925	0.12998
3760.70068	0.13190
3758.77212	0.13392
3756.84355	0.13631
3754.91499	0.13802
3752.98643	0.13953
3751.05786	0.14229
3749.12930	0.14628
3747.20073	0.14922
3745.27217	0.15156
3743.34360	0.15549
3741.41504	0.15963
3739.48647	0.16228
3737.55791	0.16498
3735.62935	0.16914
3733.70078	0.17481
3731.77222	0.18030
3729.84365	0.18507
3727.91509	0.18961
3725.98652	0.19510
3724.05796	0.20177
3722.12939	0.20858
3720.20083	0.21586
3718.27227	0.22383
3716.34370	0.23169
3714.41514	0.23901
3712.48657	0.24756
3710.55801	0.26021
3708.62944	0.27498
3706.70088	0.28782
3704.77231	0.29966
3702.84375	0.31266
3700.91519	0.32938
3698.98662	0.34848
3697.05806	0.36697
3695.12949	0.38591
3693.20093	0.40528
3691.27236	0.42598
3689.34380	0.45317
3687.41523	0.48792
3685.48667	0.51941
3683.55811	0.54669
3681.62954	0.57531
3679.70098	0.60669
3677.77241	0.63922
3675.84385	0.67755
3673.91528	0.73038
3671.98672	0.77495
3670.05815	0.81409
3668.12959	0.86751
3666.20103	0.91702
3664.27246	0.95838
3662.34390	1.00233
3660.41533	1.04954
3658.48677	1.09541
3656.55820	1.14346
3654.62964	1.19758
3652.70107	1.24348
3650.77251	1.28239
3648.84395	1.33598
3646.91538	1.40471
3644.98682	1.45670
3643.05825	1.49626
3641.12969	1.53644
3639.20112	1.58075
3637.27256	1.62516
3635.34399	1.66828
3633.41543	1.71092
3631.48687	1.74959
3629.55830	1.78791
3627.62974	1.83979
3625.70117	1.89085
3623.77261	1.92631
3621.84404	1.95940
3619.91548	1.99603
3617.98691	2.04031
3616.05835	2.08396
3614.12979	2.12074
3612.20122	2.15911
3610.27266	2.19724
3608.34409	2.23631
3606.41553	2.27991
3604.48696	2.32080
3602.55840	2.35614
3600.62983	2.39345
3598.70127	2.43457
3596.77271	2.47500
3594.84414	2.51481
3592.91558	2.55519
3590.98701	2.59403
3589.05845	2.63109
3587.12988	2.67478
3585.20132	2.72246
3583.27275	2.76290
3581.34419	2.79967
3579.41562	2.83843
3577.48706	2.88029
3575.55850	2.92399
3573.62993	2.96851
3571.70137	3.01070
3569.77280	3.05127
3567.84424	3.09549
3565.91567	3.14763
3563.98711	3.19542
3562.05854	3.23499
3560.12998	3.27771
3558.20142	3.32420
3556.27285	3.36969
3554.34429	3.41371
3552.41572	3.45963
3550.48716	3.50608
3548.55859	3.55049
3546.63003	3.59440
3544.70146	3.64214
3542.77290	3.69292
3540.84434	3.74101
3538.91577	3.78572
3536.98721	3.83021
3535.05864	3.87855
3533.13008	3.92774
3531.20151	3.97509
3529.27295	4.02258
3527.34438	4.07161
3525.41582	4.12022
3523.48726	4.16797
3521.55869	4.21723
3519.63013	4.26426
3517.70156	4.30885
3515.77300	4.35708
3513.84443	4.40843
3511.91587	4.45787
3509.98730	4.50580
3508.05874	4.55272
3506.13018	4.59863
3504.20161	4.64460
3502.27305	4.69259
3500.34448	4.74362
3498.41592	4.79115
3496.48735	4.83525
3494.55879	4.88512
3492.63022	4.93960
3490.70166	4.98954
3488.77310	5.03546
3486.84453	5.08324
3484.91597	5.13450
3482.98740	5.18616
3481.05884	5.23847
3479.13027	5.29242
3477.20171	5.34723
3475.27314	5.40170
3473.34458	5.45262
3471.41602	5.50358
3469.48745	5.55578
3467.55889	5.60346
3465.63032	5.64807
3463.70176	5.69619
3461.77319	5.74659
3459.84463	5.79851
3457.91606	5.85412
3455.98750	5.90950
3454.05894	5.96037
3452.13037	6.01032
3450.20181	6.06238
3448.27324	6.11106
3446.34468	6.15412
3444.41611	6.19266
3442.48755	6.23160
3440.55898	6.27028
3438.63042	6.31185
3436.70186	6.36467
3434.77329	6.43149
3432.84473	6.50473
3430.91616	6.56475
3428.98760	6.61584
3427.05903	6.67564
3425.13047	6.73752
3423.20190	6.77566
3421.27334	6.81317
3419.34478	6.88698
3417.41621	6.97167
3415.48765	7.03116
3413.55908	7.07559
3411.63052	7.12164
3409.70195	7.14092
3407.77339	7.15267
3405.84482	7.20398
3403.91626	7.26512
3401.98770	7.28691
3400.05913	7.32588
3398.13057	7.41436
3396.20200	7.46153
3394.27344	7.45665
3392.34487	7.47469
3390.41631	7.53934
3388.48774	7.59361
3386.55918	7.62384
3384.63062	7.68378
3382.70205	7.75934
3380.77349	7.77314
3378.84492	7.72605
3376.91636	7.71108
3374.98779	7.75728
3373.05923	7.82526
3371.13066	7.89494
3369.20210	7.99298
3367.27354	8.05626
3365.34497	8.01854
3363.41641	7.96674
3361.48784	7.98011
3359.55928	8.04048
3357.63071	8.08353
3355.70215	8.08052
3353.77358	8.06772
3351.84502	8.12260
3349.91646	8.18328
3347.98789	8.21996
3346.05933	8.29600
3344.13076	8.34317
3342.20220	8.35851
3340.27363	8.38818
3338.34507	8.39668
3336.41650	8.36113
3334.48794	8.30947
3332.55937	8.28933
3330.63081	8.32100
3328.70225	8.34394
3326.77368	8.37430
3324.84512	8.41961
3322.91655	8.35312
3320.98799	8.23934
3319.05942	8.23314
3317.13086	8.30838
3315.20229	8.33627
3313.27373	8.34047
3311.34517	8.35575
3309.41660	8.33368
3307.48804	8.32245
3305.55947	8.39005
3303.63091	8.42170
3301.70234	8.31060
3299.77378	8.24838
3297.84521	8.31148
3295.91665	8.38921
3293.98809	8.42656
3292.05952	8.49998
3290.13096	8.59044
3288.20239	8.54625
3286.27383	8.49712
3284.34526	8.64195
3282.41670	8.82877
3280.48813	8.74284
3278.55957	8.63297
3276.63101	8.71095
3274.70244	8.73880
3272.77388	8.60034
3270.84531	8.48062
3268.91675	8.42898
3266.98818	8.41753
3265.05962	8.48538
3263.13105	8.54477
3261.20249	8.53794
3259.27393	8.55165
3257.34536	8.58795
3255.41680	8.58078
3253.48823	8.51341
3251.55967	8.44108
3249.63110	8.44045
3247.70254	8.50387
3245.77397	8.57952
3243.84541	8.71110
3241.91685	8.79806
3239.98828	8.66050
3238.05972	8.43616
3236.13115	8.33438
3234.20259	8.38443
3232.27402	8.44598
3230.34546	8.40163
3228.41689	8.34451
3226.48833	8.37169
3224.55977	8.42700
3222.63120	8.44041
3220.70264	8.37444
3218.77407	8.28837
3216.84551	8.26291
3214.91694	8.26903
3212.98838	8.24320
3211.05981	8.17318
3209.13125	8.15322
3207.20269	8.18074
3205.27412	8.12158
3203.34556	8.01938
3201.41699	7.96956
3199.48843	7.95184
3197.55986	7.94919
3195.63130	7.92321
3193.70273	7.88671
3191.77417	7.90194
3189.84561	7.91559
3187.91704	7.84881
3185.98848	7.71212
3184.05991	7.60326
3182.13135	7.56250
3180.20278	7.51628
3178.27422	7.41911
3176.34565	7.31778
3174.41709	7.26442
3172.48853	7.23410
3170.55996	7.17288
3168.63140	7.08394
3166.70283	7.01984
3164.77427	6.98298
3162.84570	6.92505
3160.91714	6.85027
3158.98857	6.77734
3157.06001	6.68884
3155.13145	6.58894
3153.20288	6.51319
3151.27432	6.46488
3149.34575	6.40471
3147.41719	6.31818
3145.48862	6.22890
3143.56006	6.15245
3141.63149	6.07923
3139.70293	5.99773
3137.77437	5.91773
3135.84580	5.84633
3133.91724	5.77049
3131.98867	5.69140
3130.06011	5.62724
3128.13154	5.56731
3126.20298	5.49581
3124.27441	5.41649
3122.34585	5.33359
3120.41729	5.25731
3118.48872	5.18692
3116.56016	5.11452
3114.63159	5.04328
3112.70303	4.97425
3110.77446	4.90325
3108.84590	4.82690
3106.91733	4.75117
3104.98877	4.68024
3103.06021	4.60778
3101.13164	4.53340
3099.20308	4.46158
3097.27451	4.39226
3095.34595	4.32646
3093.41738	4.26382
3091.48882	4.19927
3089.56025	4.13196
3087.63169	4.06498
3085.70312	3.99860
3083.77456	3.93256
3081.84600	3.86650
3079.91743	3.80001
3077.98887	3.73623
3076.06030	3.67598
3074.13174	3.61581
3072.20317	3.55523
3070.27461	3.49594
3068.34604	3.43680
3066.41748	3.37666
3064.48892	3.31839
3062.56035	3.26236
3060.63179	3.20667
3058.70322	3.15202
3056.77466	3.09804
3054.84609	3.04372
3052.91753	2.98977
3050.98896	2.93699
3049.06040	2.88499
3047.13184	2.83352
3045.20327	2.78268
3043.27471	2.73258
3041.34614	2.68412
3039.41758	2.63720
3037.48901	2.59021
3035.56045	2.54295
3033.63188	2.49695
3031.70332	2.45226
3029.77476	2.40784
3027.84619	2.36393
3025.91763	2.32064
3023.98906	2.27793
3022.06050	2.23629
3020.13193	2.19548
3018.20337	2.15506
3016.27480	2.11528
3014.34624	2.07639
3012.41768	2.03839
3010.48911	2.00083
3008.56055	1.96349
3006.63198	1.92695
3004.70342	1.89134
3002.77485	1.85604
3000.84629	1.82083
2998.91772	1.78617
2996.98916	1.75266
2995.06060	1.71995
2993.13203	1.68752
2991.20347	1.65569
2989.27490	1.62424
2987.34634	1.59282
2985.41777	1.56212
2983.48921	1.53264
2981.56064	1.50368
2979.63208	1.47467
2977.70352	1.44603
2975.77495	1.41814
2973.84639	1.39092
2971.91782	1.36401
2969.98926	1.33713
2968.06069	1.31056
2966.13213	1.28481
2964.20356	1.26004
2962.27500	1.23611
2960.34644	1.21278
2958.41787	1.18949
2956.48931	1.16599
2954.56074	1.14306
2952.63218	1.12124
2950.70361	1.09985
2948.77505	1.07827
2946.84648	1.05682
2944.91792	1.03588
2942.98936	1.01557
2941.06079	0.99569
2939.13223	0.97606
2937.20366	0.95693
2935.27510	0.93824
2933.34653	0.92012
2931.41797	0.90279
2929.48940	0.88568
2927.56084	0.86879
2925.63228	0.85266
2923.70371	0.83690
2921.77515	0.82095
2919.84658	0.80515
2917.91802	0.78985
2915.98945	0.77448
2914.06089	0.75897
2912.13232	0.74429
2910.20376	0.73050
2908.27520	0.71668
2906.34663	0.70286
2904.41807	0.68953
2902.48950	0.67665
2900.56094	0.66423
2898.63237	0.65246
2896.70381	0.64107
2894.77524	0.62947
2892.84668	0.61767
2890.91812	0.60617
2888.98955	0.59511
2887.06099	0.58418
2885.13242	0.57329
2883.20386	0.56271
2881.27529	0.55258
2879.34673	0.54270
2877.41816	0.53286
2875.48960	0.52324
2873.56104	0.51387
2871.63247	0.50457
2869.70391	0.49531
2867.77534	0.48606
2865.84678	0.47694
2863.91821	0.46833
2861.98965	0.46013
2860.06108	0.45203
2858.13252	0.44417
2856.20396	0.43674
2854.27539	0.42961
2852.34683	0.42240
2850.41826	0.41504
2848.48970	0.40788
2846.56113	0.40100
2844.63257	0.39429
2842.70400	0.38786
2840.77544	0.38170
2838.84687	0.37585
2836.91831	0.37032
2834.98975	0.36484
2833.06118	0.35932
2831.13262	0.35389
2829.20405	0.34857
2827.27549	0.34323
2825.34692	0.33782
2823.41836	0.33255
2821.48979	0.32745
2819.56123	0.32229
2817.63267	0.31709
2815.70410	0.31207
2813.77554	0.30729
2811.84697	0.30267
2809.91841	0.29808
2807.98984	0.29358
2806.06128	0.28918
2804.13271	0.28486
2802.20415	0.28069
2800.27559	0.27664
2798.34702	0.27259
2796.41846	0.26856
2794.48989	0.26469
2792.56133	0.26090
2790.63276	0.25702
2788.70420	0.25309
2786.77563	0.24933
2784.84707	0.24593
2782.91851	0.24272
2780.98994	0.23943
2779.06138	0.23594
2777.13281	0.23246
2775.20425	0.22933
2773.27568	0.22657
2771.34712	0.22384
2769.41855	0.22090
2767.48999	0.21787
2765.56143	0.21501
2763.63286	0.21225
2761.70430	0.20953
2759.77573	0.20704
2757.84717	0.20472
2755.91860	0.20232
2753.99004	0.19975
2752.06147	0.19713
2750.13291	0.19471
2748.20435	0.19257
2746.27578	0.19050
2744.34722	0.18829
2742.41865	0.18599
2740.49009	0.18381
2738.56152	0.18179
2736.63296	0.17981
2734.70439	0.17787
2732.77583	0.17596
2730.84727	0.17410
2728.91870	0.17241
2726.99014	0.17084
2725.06157	0.16922
2723.13301	0.16752
2721.20444	0.16589
2719.27588	0.16432
2717.34731	0.16272
2715.41875	0.16113
2713.49019	0.15967
2711.56162	0.15836
2709.63306	0.15708
2707.70449	0.15577
2705.77593	0.15449
2703.84736	0.15324
2701.91880	0.15195
2699.99023	0.15067
2698.06167	0.14943
2696.13311	0.14825
2694.20454	0.14723
2692.27598	0.14628
2690.34741	0.14535
2688.41885	0.14451
2686.49028	0.14364
2684.56172	0.14265
2682.63315	0.14164
2680.70459	0.14074
2678.77603	0.14002
2676.84746	0.13942
2674.91890	0.13880
2672.99033	0.13798
2671.06177	0.13700
2669.13320	0.13615
2667.20464	0.13556
2665.27607	0.13502
2663.34751	0.13441
2661.41895	0.13385
2659.49038	0.13343
2657.56182	0.13301
2655.63325	0.13250
2653.70469	0.13205
2651.77612	0.13174
2649.84756	0.13142
2647.91899	0.13101
2645.99043	0.13057
2644.06187	0.13022
2642.13330	0.13003
2640.20474	0.12992
2638.27617	0.12971
2636.34761	0.12932
2634.41904	0.12895
2632.49048	0.12883
2630.56191	0.12882
2628.63335	0.12869
2626.70479	0.12856
2624.77622	0.12857
2622.84766	0.12857
2620.91909	0.12845
2618.99053	0.12829
2617.06196	0.12817
2615.13340	0.12813
2613.20483	0.12809
2611.27627	0.12806
2609.34771	0.12820
2607.41914	0.12851
2605.49058	0.12877
2603.56201	0.12890
2601.63345	0.12906
2599.70488	0.12923
2597.77632	0.12934
2595.84775	0.12952
2593.91919	0.12977
2591.99062	0.12994
2590.06206	0.13006
2588.13350	0.13039
2586.20493	0.13084
2584.27637	0.13117
2582.34780	0.13146
2580.41924	0.13189
2578.49067	0.13228
2576.56211	0.13266
2574.63354	0.13318
2572.70498	0.13371
2570.77642	0.13414
2568.84785	0.13457
2566.91929	0.13499
2564.99072	0.13543
2563.06216	0.13602
2561.13359	0.13670
2559.20503	0.13741
2557.27646	0.13810
2555.34790	0.13861
2553.41934	0.13902
2551.49077	0.13961
2549.56221	0.14030
2547.63364	0.14094
2545.70508	0.14158
2543.77651	0.14223
2541.84795	0.14293
2539.91938	0.14376
2537.99082	0.14462
2536.06226	0.14540
2534.13369	0.14607
2532.20513	0.14672
2530.27656	0.14745
2528.34800	0.14824
2526.41943	0.14908
2524.49087	0.14999
2522.56230	0.15083
2520.63374	0.15155
2518.70518	0.15228
2516.77661	0.15308
2514.84805	0.15394
2512.91948	0.15485
2510.99092	0.15572
2509.06235	0.15656
2507.13379	0.15744
2505.20522	0.15834
2503.27666	0.15924
2501.34810	0.16012
2499.41953	0.16101
2497.49097	0.16191
2495.56240	0.16277
2493.63384	0.16363
2491.70527	0.16457
2489.77671	0.16551
2487.84814	0.16641
2485.91958	0.16729
2483.99102	0.16822
2482.06245	0.16922
2480.13389	0.17024
2478.20532	0.17122
2476.27676	0.17210
2474.34819	0.17304
2472.41963	0.17413
2470.49106	0.17525
2468.56250	0.17626
2466.63394	0.17712
2464.70537	0.17798
2462.77681	0.17903
2460.84824	0.18014
2458.91968	0.18112
2456.99111	0.18209
2455.06255	0.18325
2453.13398	0.18435
2451.20542	0.18529
2449.27686	0.18633
2447.34829	0.18749
2445.41973	0.18850
2443.49116	0.18944
2441.56260	0.19046
2439.63403	0.19162
2437.70547	0.19288
2435.77690	0.19411
2433.84834	0.19522
2431.91978	0.19633
2429.99121	0.19747
2428.06265	0.19857
2426.13408	0.19968
2424.20552	0.20085
2422.27695	0.20201
2420.34839	0.20312
2418.41982	0.20425
2416.49126	0.20542
2414.56270	0.20659
2412.63413	0.20780
2410.70557	0.20907
2408.77700	0.21039
2406.84844	0.21173
2404.91987	0.21306
2402.99131	0.21428
2401.06274	0.21545
2399.13418	0.21674
2397.20562	0.21807
2395.27705	0.21940
2393.34849	0.22074
2391.41992	0.22202
2389.49136	0.22336
2387.56279	0.22483
2385.63423	0.22634
2383.70566	0.22791
2381.77710	0.22966
2379.84854	0.23152
2377.91997	0.23335
2375.99141	0.23512
2374.06284	0.23682
2372.13428	0.23876
2370.20571	0.24130
2368.27715	0.24400
2366.34858	0.24666
2364.42002	0.24928
2362.49146	0.25121
2360.56289	0.25248
2358.63433	0.25365
2356.70576	0.25489
2354.77720	0.25662
2352.84863	0.25819
2350.92007	0.25869
2348.99150	0.25887
2347.06294	0.25950
2345.13437	0.26091
2343.20581	0.26311
2341.27725	0.26559
2339.34868	0.26801
2337.42012	0.27001
2335.49155	0.27134
2333.56299	0.27249
2331.63442	0.27422
2329.70586	0.27628
2327.77729	0.27829
2325.84873	0.27997
2323.92017	0.28113
2321.99160	0.28216
2320.06304	0.28355
2318.13447	0.28526
2316.20591	0.28692
2314.27734	0.28845
2312.34878	0.29003
2310.42021	0.29176
2308.49165	0.29359
2306.56309	0.29537
2304.63452	0.29689
2302.70596	0.29819
2300.77739	0.29971
2298.84883	0.30157
2296.92026	0.30351
2294.99170	0.30535
2293.06313	0.30712
2291.13457	0.30887
2289.20601	0.31066
2287.27744	0.31259
2285.34888	0.31462
2283.42031	0.31663
2281.49175	0.31859
2279.56318	0.32059
2277.63462	0.32265
2275.70605	0.32481
2273.77749	0.32698
2271.84893	0.32907
2269.92036	0.33114
2267.99180	0.33326
2266.06323	0.33542
2264.13467	0.33761
2262.20610	0.33979
2260.27754	0.34191
2258.34897	0.34400
2256.42041	0.34618
2254.49185	0.34848
2252.56328	0.35082
2250.63472	0.35309
2248.70615	0.35525
2246.77759	0.35735
2244.84902	0.35948
2242.92046	0.36166
2240.99189	0.36382
2239.06333	0.36605
2237.13477	0.36843
2235.20620	0.37076
2233.27764	0.37295
2231.34907	0.37519
2229.42051	0.37749
2227.49194	0.37976
2225.56338	0.38198
2223.63481	0.38421
2221.70625	0.38654
2219.77769	0.38885
2217.84912	0.39100
2215.92056	0.39315
2213.99199	0.39549
2212.06343	0.39782
2210.13486	0.40003
2208.20630	0.40223
2206.27773	0.40430
2204.34917	0.40631
2202.42061	0.40849
2200.49204	0.41068
2198.56348	0.41270
2196.63491	0.41460
2194.70635	0.41648
2192.77778	0.41849
2190.84922	0.42056
2188.92065	0.42247
2186.99209	0.42432
2185.06353	0.42621
2183.13496	0.42803
2181.20640	0.42975
2179.27783	0.43143
2177.34927	0.43307
2175.42070	0.43466
2173.49214	0.43624
2171.56357	0.43772
2169.63501	0.43911
2167.70645	0.44051
2165.77788	0.44189
2163.84932	0.44327
2161.92075	0.44464
2159.99219	0.44579
2158.06362	0.44676
2156.13506	0.44771
2154.20649	0.44867
2152.27793	0.44962
2150.34937	0.45050
2148.42080	0.45119
2146.49224	0.45171
2144.56367	0.45218
2142.63511	0.45267
2140.70654	0.45317
2138.77798	0.45355
2136.84941	0.45381
2134.92085	0.45406
2132.99229	0.45418
2131.06372	0.45408
2129.13516	0.45387
2127.20659	0.45364
2125.27803	0.45339
2123.34946	0.45308
2121.42090	0.45270
2119.49233	0.45223
2117.56377	0.45165
2115.63521	0.45093
2113.70664	0.45017
2111.77808	0.44943
2109.84951	0.44859
2107.92095	0.44761
2105.99238	0.44653
2104.06382	0.44535
2102.13525	0.44408
2100.20669	0.44279
2098.27812	0.44141
2096.34956	0.43996
2094.42100	0.43847
2092.49243	0.43695
2090.56387	0.43534
2088.63530	0.43358
2086.70674	0.43181
2084.77817	0.43011
2082.84961	0.42834
2080.92104	0.42638
2078.99248	0.42435
2077.06392	0.42229
2075.13535	0.42017
2073.20679	0.41807
2071.27822	0.41599
2069.34966	0.41379
2067.42109	0.41140
2065.49253	0.40898
2063.56396	0.40662
2061.63540	0.40430
2059.70684	0.40196
2057.77827	0.39958
2055.84971	0.39720
2053.92114	0.39474
2051.99258	0.39209
2050.06401	0.38934
2048.13545	0.38663
2046.20688	0.38393
2044.27832	0.38126
2042.34976	0.37866
2040.42119	0.37606
2038.49263	0.37346
2036.56406	0.37085
2034.63550	0.36818
2032.70693	0.36537
2030.77837	0.36262
2028.84980	0.36000
2026.92124	0.35732
2024.99268	0.35449
2023.06411	0.35166
2021.13555	0.34893
2019.20698	0.34619
2017.27842	0.34338
2015.34985	0.34058
2013.42129	0.33790
2011.49272	0.33525
2009.56416	0.33259
2007.63560	0.32993
2005.70703	0.32726
2003.77847	0.32458
2001.84990	0.32189
1999.92134	0.31924
1997.99277	0.31660
1996.06421	0.31403
1994.13564	0.31151
1992.20708	0.30890
1990.27852	0.30623
1988.34995	0.30375
1986.42139	0.30145
1984.49282	0.29921
1982.56426	0.29693
1980.63569	0.29452
1978.70713	0.29211
1976.77856	0.28983
1974.85000	0.28767
1972.92144	0.28551
1970.99287	0.28341
1969.06431	0.28136
1967.13574	0.27928
1965.20718	0.27717
1963.27861	0.27507
1961.35005	0.27304
1959.42148	0.27114
1957.49292	0.26929
1955.56436	0.26742
1953.63579	0.26564
1951.70723	0.26397
1949.77866	0.26233
1947.85010	0.26068
1945.92153	0.25914
1943.99297	0.25766
1942.06440	0.25619
1940.13584	0.25473
1938.20728	0.25333
1936.27871	0.25198
1934.35015	0.25065
1932.42158	0.24941
1930.49302	0.24827
1928.56445	0.24719
1926.63589	0.24610
1924.70732	0.24502
1922.77876	0.24396
1920.85020	0.24299
1918.92163	0.24214
1916.99307	0.24136
1915.06450	0.24052
1913.13594	0.23958
1911.20737	0.23867
1909.27881	0.23781
1907.35024	0.23706
1905.42168	0.23645
1903.49312	0.23595
1901.56455	0.23543
1899.63599	0.23492
1897.70742	0.23449
1895.77886	0.23409
1893.85029	0.23373
1891.92173	0.23337
1889.99316	0.23307
1888.06460	0.23281
1886.13604	0.23253
1884.20747	0.23227
1882.27891	0.23212
1880.35034	0.23203
1878.42178	0.23190
1876.49321	0.23183
1874.56465	0.23179
1872.63608	0.23178
1870.70752	0.23172
1868.77896	0.23189
1866.85039	0.23238
1864.92183	0.23278
1862.99326	0.23299
1861.06470	0.23320
1859.13613	0.23357
1857.20757	0.23394
1855.27900	0.23434
1853.35044	0.23475
1851.42187	0.23522
1849.49331	0.23570
1847.56475	0.23619
1845.63618	0.23679
1843.70762	0.23775
1841.77905	0.23881
1839.85049	0.23951
1837.92192	0.24028
1835.99336	0.24117
1834.06479	0.24203
1832.13623	0.24276
1830.20767	0.24387
1828.27910	0.24538
1826.35054	0.24664
1824.42197	0.24799
1822.49341	0.24944
1820.56484	0.25082
1818.63628	0.25225
1816.70771	0.25389
1814.77915	0.25549
1812.85059	0.25713
1810.92202	0.25901
1808.99346	0.26107
1807.06489	0.26312
1805.13633	0.26505
1803.20776	0.26710
1801.27920	0.26934
1799.35063	0.27206
1797.42207	0.27472
1795.49351	0.27707
1793.56494	0.27956
1791.63638	0.28311
1789.70781	0.28708
1787.77925	0.29011
1785.85068	0.29326
1783.92212	0.29684
1781.99355	0.30068
1780.06499	0.30482
1778.13643	0.30923
1776.20786	0.31323
1774.27930	0.31705
1772.35073	0.32226
1770.42217	0.32877
1768.49360	0.33483
1766.56504	0.34054
1764.63647	0.34606
1762.70791	0.35176
1760.77935	0.35900
1758.85078	0.36602
1756.92222	0.37318
1754.99365	0.38109
1753.06509	0.38814
1751.13652	0.39610
1749.20796	0.40616
1747.27939	0.41674
1745.35083	0.42645
1743.42227	0.43646
1741.49370	0.44725
1739.56514	0.45998
1737.63657	0.47261
1735.70801	0.48320
1733.77944	0.49902
1731.85088	0.51880
1729.92231	0.53496
1727.99375	0.55126
1726.06519	0.56831
1724.13662	0.58652
1722.20806	0.60615
1720.27949	0.62409
1718.35093	0.64483
1716.42236	0.67646
1714.49380	0.70760
1712.56523	0.73269
1710.63667	0.75640
1708.70811	0.78146
1706.77954	0.80991
1704.85098	0.84415
1702.92241	0.87465
1700.99385	0.90406
1699.06528	0.94753
1697.13672	0.98776
1695.20815	1.02928
1693.27959	1.06958
1691.35103	1.10146
1689.42246	1.13746
1687.49390	1.17478
1685.56533	1.21001
1683.63677	1.26441
1681.70820	1.32164
1679.77964	1.35841
1677.85107	1.39324
1675.92251	1.43323
1673.99395	1.48244
1672.06538	1.52546
1670.13682	1.56702
1668.20825	1.62128
1666.27969	1.66457
1664.35112	1.69968
1662.42256	1.74276
1660.49399	1.79113
1658.56543	1.82881
1656.63687	1.85981
1654.70830	1.88920
1652.77974	1.93980
1650.85117	1.99229
1648.92261	2.01378
1646.99404	2.04224
1645.06548	2.07834
1643.13691	2.10367
1641.20835	2.11926
1639.27979	2.13185
1637.35122	2.14005
1635.42266	2.14457
1633.49409	2.14356
1631.56553	2.13446
1629.63696	2.12094
1627.70840	2.09787
1625.77983	2.07114
1623.85127	2.03705
1621.92271	1.99435
1619.99414	1.95599
1618.06558	1.91743
1616.13701	1.86009
1614.20845	1.80050
1612.27988	1.75547
1610.35132	1.70871
1608.42275	1.65744
1606.49419	1.60611
1604.56562	1.55802
1602.63706	1.51081
1600.70850	1.46455
1598.77993	1.42208
1596.85137	1.38170
1594.92280	1.34214
1592.99424	1.30406
1591.06567	1.26895
1589.13711	1.23538
1587.20854	1.20363
1585.27998	1.17408
1583.35142	1.14582
1581.42285	1.11933
1579.49429	1.09630
1577.56572	1.07493
1575.63716	1.04812
1573.70859	1.02441
1571.78003	1.00853
1569.85146	0.99065
1567.92290	0.97015
1565.99434	0.95388
1564.06577	0.93952
1562.13721	0.92710
1560.20864	0.91616
1558.28008	0.89678
1556.35151	0.87914
1554.42295	0.86848
1552.49438	0.85793
1550.56582	0.84771
1548.63726	0.83755
1546.70869	0.82852
1544.78013	0.81998
1542.85156	0.81118
1540.92300	0.80174
1538.99443	0.79034
1537.06587	0.78257
1535.13730	0.77698
1533.20874	0.76952
1531.28018	0.76157
1529.35161	0.75564
1527.42305	0.74984
1525.49448	0.74363
1523.56592	0.73801
1521.63735	0.73235
1519.70879	0.72629
1517.78022	0.72102
1515.85166	0.71577
1513.92310	0.71090
1511.99453	0.70669
1510.06597	0.70263
1508.13740	0.69867
1506.20884	0.69337
1504.28027	0.68892
1502.35171	0.68602
1500.42314	0.68308
1498.49458	0.67979
1496.56602	0.67629
1494.63745	0.67297
1492.70889	0.66995
1490.78032	0.66699
1488.85176	0.66388
1486.92319	0.66102
1484.99463	0.65834
1483.06606	0.65566
1481.13750	0.65277
1479.20894	0.64979
1477.28037	0.64702
1475.35181	0.64436
1473.42324	0.64157
1471.49468	0.63829
1469.56611	0.63536
1467.63755	0.63294
1465.70898	0.63059
1463.78042	0.62830
1461.85186	0.62626
1459.92329	0.62423
1457.99473	0.62180
1456.06616	0.61926
1454.13760	0.61726
1452.20903	0.61559
1450.28047	0.61400
1448.35190	0.61246
1446.42334	0.61088
1444.49478	0.60926
1442.56621	0.60768
1440.63765	0.60621
1438.70908	0.60491
1436.78052	0.60357
1434.85195	0.60205
1432.92339	0.60063
1430.99482	0.59931
1429.06626	0.59783
1427.13770	0.59626
1425.20913	0.59478
1423.28057	0.59325
1421.35200	0.59151
1419.42344	0.58962
1417.49487	0.58813
1415.56631	0.58701
1413.63774	0.58582
1411.70918	0.58445
1409.78062	0.58299
1407.85205	0.58162
1405.92349	0.58037
1403.99492	0.57918
1402.06636	0.57799
1400.13779	0.57669
1398.20923	0.57516
1396.28066	0.57372
1394.35210	0.57251
1392.42354	0.57126
1390.49497	0.56992
1388.56641	0.56868
1386.63784	0.56769
1384.70928	0.56678
1382.78071	0.56576
1380.85215	0.56468
1378.92358	0.56364
1376.99502	0.56257
1375.06646	0.56148
1373.13789	0.56047
1371.20933	0.55957
1369.28076	0.55865
1367.35220	0.55772
1365.42363	0.55683
1363.49507	0.55589
1361.56650	0.55492
1359.63794	0.55402
1357.70937	0.55319
1355.78081	0.55235
1353.85225	0.55147
1351.92368	0.55054
1349.99512	0.54964
1348.06655	0.54885
1346.13799	0.54806
1344.20942	0.54716
1342.28086	0.54618
1340.35229	0.54533
1338.42373	0.54455
1336.49517	0.54368
1334.56660	0.54277
1332.63804	0.54190
1330.70947	0.54096
1328.78091	0.53997
1326.85234	0.53906
1324.92378	0.53825
1322.99521	0.53745
1321.06665	0.53650
1319.13809	0.53545
1317.20952	0.53447
1315.28096	0.53363
1313.35239	0.53286
1311.42383	0.53210
1309.49526	0.53132
1307.56670	0.53049
1305.63813	0.52956
1303.70957	0.52859
1301.78101	0.52775
1299.85244	0.52694
1297.92388	0.52608
1295.99531	0.52523
1294.06675	0.52435
1292.13818	0.52349
1290.20962	0.52279
1288.28105	0.52217
1286.35249	0.52142
1284.42393	0.52062
1282.49536	0.51997
1280.56680	0.51938
1278.63823	0.51873
1276.70967	0.51808
1274.78110	0.51739
1272.85254	0.51656
1270.92397	0.51569
1268.99541	0.51482
1267.06685	0.51398
1265.13828	0.51318
1263.20972	0.51238
1261.28115	0.51167
1259.35259	0.51101
1257.42402	0.51025
1255.49546	0.50949
1253.56689	0.50900
1251.63833	0.50869
1249.70977	0.50828
1247.78120	0.50777
1245.85264	0.50723
1243.92407	0.50648
1241.99551	0.50555
1240.06694	0.50465
1238.13838	0.50379
1236.20981	0.50293
1234.28125	0.50214
1232.35269	0.50148
1230.42412	0.50078
1228.49556	0.49989
1226.56699	0.49893
1224.63843	0.49808
1222.70986	0.49735
1220.78130	0.49674
1218.85273	0.49608
1216.92417	0.49519
1214.99561	0.49417
1213.06704	0.49324
1211.13848	0.49240
1209.20991	0.49157
1207.28135	0.49063
1205.35278	0.48957
1203.42422	0.48855
1201.49565	0.48770
1199.56709	0.48692
1197.63853	0.48611
1195.70996	0.48525
1193.78140	0.48431
1191.85283	0.48329
1189.92427	0.48224
1187.99570	0.48120
1186.06714	0.48028
1184.13857	0.47934
1182.21001	0.47825
1180.28145	0.47721
1178.35288	0.47628
1176.42432	0.47536
1174.49575	0.47445
1172.56719	0.47357
1170.63862	0.47266
1168.71006	0.47174
1166.78149	0.47084
1164.85293	0.47001
1162.92437	0.46923
1160.99580	0.46838
1159.06724	0.46743
1157.13867	0.46642
1155.21011	0.46540
1153.28154	0.46440
1151.35298	0.46349
1149.42441	0.46272
1147.49585	0.46207
1145.56729	0.46138
1143.63872	0.46058
1141.71016	0.45971
1139.78159	0.45871
1137.85303	0.45771
1135.92446	0.45683
1133.99590	0.45595
1132.06733	0.45514
1130.13877	0.45447
1128.21021	0.45371
1126.28164	0.45280
1124.35308	0.45195
1122.42451	0.45118
1120.49595	0.45053
1118.56738	0.45011
1116.63882	0.44975
1114.71025	0.44930
1112.78169	0.44873
1110.85312	0.44812
1108.92456	0.44767
1106.99600	0.44738
1105.06743	0.44709
1103.13887	0.44665
1101.21030	0.44626
1099.28174	0.44602
1097.35317	0.44561
1095.42461	0.44501
1093.49604	0.44461
1091.56748	0.44446
1089.63892	0.44425
1087.71035	0.44389
1085.78179	0.44348
1083.85322	0.44305
1081.92466	0.44266
1079.99609	0.44249
1078.06753	0.44248
1076.13896	0.44231
1074.21040	0.44192
1072.28184	0.44170
1070.35327	0.44181
1068.42471	0.44201
1066.49614	0.44227
1064.56758	0.44269
1062.63901	0.44319
1060.71045	0.44347
1058.78188	0.44350
1056.85332	0.44350
1054.92476	0.44363
1052.99619	0.44394
1051.06763	0.44444
1049.13906	0.44511
1047.21050	0.44577
1045.28193	0.44616
1043.35337	0.44635
1041.42480	0.44671
1039.49624	0.44744
1037.56768	0.44834
1035.63911	0.44926
1033.71055	0.45025
1031.78198	0.45121
1029.85342	0.45209
1027.92485	0.45310
1025.99629	0.45437
1024.06772	0.45579
1022.13916	0.45715
1020.21060	0.45838
1018.28203	0.45968
1016.35347	0.46115
1014.42490	0.46257
1012.49634	0.46377
1010.56777	0.46500
1008.63921	0.46649
1006.71064	0.46819
1004.78208	0.47003
1002.85352	0.47191
1000.92495	0.47381
998.99639	0.47578
997.06782	0.47776
995.13926	0.47989
993.21069	0.48225
991.28213	0.48471
989.35356	0.48719
987.42500	0.48964
985.49644	0.49210
983.56787	0.49476
981.63931	0.49774
979.71074	0.50088
977.78218	0.50401
975.85361	0.50721
973.92505	0.51059
971.99648	0.51407
970.06792	0.51751
968.13936	0.52099
966.21079	0.52474
964.28223	0.52881
962.35366	0.53309
960.42510	0.53736
958.49653	0.54159
956.56797	0.54598
954.63940	0.55057
952.71084	0.55540
950.78228	0.56058
948.85371	0.56578
946.92515	0.57067
944.99658	0.57566
943.06802	0.58130
941.13945	0.58746
939.21089	0.59358
937.28232	0.59964
935.35376	0.60599
933.42520	0.61248
931.49663	0.61893
929.56807	0.62572
927.63950	0.63323
925.71094	0.64106
923.78237	0.64860
921.85381	0.65626
919.92524	0.66454
917.99668	0.67271
916.06812	0.68028
914.13955	0.68806
912.21099	0.69656
910.28242	0.70541
908.35386	0.71449
906.42529	0.72360
904.49673	0.73279
902.56816	0.74288
900.63960	0.75373
898.71104	0.76383
896.78247	0.77283
894.85391	0.78206
892.92534	0.79199
890.99678	0.80156
889.06821	0.81104
887.13965	0.82212
885.21108	0.83416
883.28252	0.84561
881.35396	0.85640
879.42539	0.86677
877.49683	0.87685
875.56826	0.88688
873.63970	0.89761
871.71113	0.90956
869.78257	0.92229
867.85400	0.93522
865.92544	0.94789
863.99687	0.96013
862.06831	0.97188
860.13975	0.98264
858.21118	0.99348
856.28262	1.00667
854.35405	1.02162
852.42549	1.03406
850.49692	1.04280
848.56836	1.05136
846.63979	1.06167
844.71123	1.07464
842.78267	1.08947
840.85410	1.10326
838.92554	1.11719
836.99697	1.13170
835.06841	1.14276
833.13984	1.15230
831.21128	1.16391
829.28271	1.17595
827.35415	1.18897
825.42559	1.20170
823.49702	1.21077
821.56846	1.21881
819.63989	1.23141
817.71133	1.25043
815.78276	1.27117
813.85420	1.28609
811.92563	1.29458
809.99707	1.30625
808.06851	1.33215
806.13994	1.36902
804.21138	1.38778
802.28281	1.38587
800.35425	1.40632
798.42568	1.45135
796.49712	1.46787
794.56855	1.45948
792.63999	1.46136
790.71143	1.46233
788.78286	1.48611
786.85430	1.56513
784.92573	1.68890
782.99717	1.84858
781.06860	2.01938
779.14004	2.24191
777.21147	4.66327
775.28291	3.77169
773.35435	1.80610
771.42578	1.58320
769.49722	1.67531
767.56865	2.09296
765.64009	4.59384
763.71152	4.58227
761.78296	4.57070
759.85439	4.55913
757.92583	2.17690
755.99727	1.52872
754.06870	1.50659
752.14014	1.51693
750.21157	1.39969
748.28301	1.30810
746.35444	1.21097
744.42588	1.09599
742.49731	1.01136
740.56875	0.89301
738.64019	0.76058
736.71162	0.69685
734.78306	0.69822
732.85449	0.67867
730.92593	0.59296
728.99736	0.46915
727.06880	0.37486
725.14023	0.33832
723.21167	0.28720
721.28311	0.19350
719.35454	0.14469
717.42598	0.19219
715.49741	0.17621
713.56885	0.03484
711.64028	-0.05433
709.71172	-0.05674
707.78315	-0.08232
705.85459	-0.18016
703.92603	-0.20469
701.99746	-0.08118
700.06890	0.01877
698.14033	0.13309
696.21177	0.37886
694.28320	0.49585
692.35464	0.33448
690.42607	0.23994
688.49751	0.20030
686.56895	0.18227
684.64038	0.21189
682.71182	0.28988
680.78325	0.28929
678.85469	0.26284
676.92612	0.29260
674.99756	0.36391
673.06899	0.35540
671.14043	0.24945
669.21187	0.16096
667.28330	0.11743
665.35474	0.11126
663.42617	0.11617
661.49761	0.13455
659.56904	0.18421
657.64048	0.24896
655.71191	0.24881
653.78335	0.19546
651.85479	0.17731
649.92622	0.15902
647.99766	0.09692
646.06909	0.01426
644.14053	0.01035
642.21196	0.08683
640.28340	0.16387
638.35483	0.14041
636.42627	0.05548
634.49771	0.05827
632.56914	0.11553
630.64058	0.14001
628.71201	0.14715
626.78345	0.17180
624.85488	0.21546
622.92632	0.27045
620.99775	0.27747
619.06919	0.25172
617.14062	0.23949
615.21206	0.21598
613.28350	0.19503
611.35493	0.19336
609.42637	0.17245
607.49780	0.17521
605.56924	0.24025
603.64067	0.29489
601.71211	0.26957
599.78354	0.18219
597.85498	0.11129
595.92642	0.08152
593.99785	0.08979
592.06929	0.13562
590.14072	0.18237
588.21216	0.19698
586.28359	0.20544
584.35503	0.24282
582.42646	0.28038
580.49790	0.23805
578.56934	0.16612
576.64077	0.14447
574.71221	0.14678
572.78364	0.13105
570.85508	0.09001
568.92651	0.07851
566.99795	0.15677
565.06938	0.22421
563.14082	0.17851
561.21226	0.11141
559.28369	0.11519
557.35513	0.12904
555.42656	0.11701
553.49800	0.09934
551.56943	0.09116
549.64087	0.13117
547.71230	0.19589
545.78374	0.22847
543.85518	0.21514
541.92661	0.20227
539.99805	0.19770
538.06948	0.16033
536.14092	0.13438
534.21235	0.17165
532.28379	0.20496
530.35522	0.20986
528.42666	0.22029
526.49810	0.19413
524.56953	0.12086
522.64097	0.07787
520.71240	0.09059
518.78384	0.14105
516.85527	0.19423
514.92671	0.21091
512.99814	0.19060
511.06958	0.17361
509.14102	0.22465
507.21245	0.33555
505.28389	0.36151
503.35532	0.28642
501.42676	0.20913
499.49819	0.18505
