3997.91411	0.06082
3995.98555	0.06081
3994.05698	0.06094
3992.12842	0.06163
3990.19985	0.06264
3988.27129	0.06316
3986.34272	0.06313
3984.41416	0.06328
3982.48560	0.06391
3980.55703	0.06457
3978.62847	0.06486
3976.69990	0.06477
3974.77134	0.06456
3972.84277	0.06463
3970.91421	0.06489
3968.98564	0.06510
3967.05708	0.06538
3965.12852	0.06559
3963.19995	0.06555
3961.27139	0.06538
3959.34282	0.06549
3957.41426	0.06583
3955.48569	0.06597
3953.55713	0.06572
3951.62856	0.06528
3949.70000	0.06510
3947.77144	0.06549
3945.84287	0.06599
3943.91431	0.06609
3941.98574	0.06613
3940.05718	0.06627
3938.12861	0.06609
3936.20005	0.06573
3934.27148	0.06563
3932.34292	0.06566
3930.41436	0.06547
3928.48579	0.06517
3926.55723	0.06502
3924.62866	0.06499
3922.70010	0.06487
3920.77153	0.06466
3918.84297	0.06443
3916.91440	0.06427
3914.98584	0.06447
3913.05728	0.06484
3911.12871	0.06490
3909.20015	0.06471
3907.27158	0.06469
3905.34302	0.06457
3903.41445	0.06391
3901.48589	0.06336
3899.55732	0.06372
3897.62876	0.06446
3895.70020	0.06467
3893.77163	0.06443
3891.84307	0.06418
3889.91450	0.06432
3887.98594	0.06459
3886.05737	0.06461
3884.12881	0.06444
3882.20024	0.06431
3880.27168	0.06448
3878.34312	0.06505
3876.41455	0.06547
3874.48599	0.06544
3872.55742	0.06537
3870.62886	0.06549
3868.70029	0.06573
3866.77173	0.06601
3864.84316	0.06617
3862.91460	0.06607
3860.98604	0.06618
3859.05747	0.06677
3857.12891	0.06721
3855.20034	0.06724
3853.27178	0.06764
3851.34321	0.06938
3849.41465	0.07068
3847.48608	0.07095
3845.55752	0.07090
3843.62896	0.07091
3841.70039	0.07096
3839.77183	0.07095
3837.84326	0.07156
3835.91470	0.07325
3833.98613	0.07468
3832.05757	0.07521
3830.12900	0.07564
3828.20044	0.07618
3826.27187	0.07676
3824.34331	0.07738
3822.41475	0.07778
3820.48618	0.07853
3818.55762	0.07992
3816.62905	0.08115
3814.70049	0.08235
3812.77192	0.08345
3810.84336	0.08422
3808.91479	0.08471
3806.98623	0.08535
3805.05767	0.08667
3803.12910	0.08776
3801.20054	0.08875
3799.27197	0.09014
3797.34341	0.09120
3795.41484	0.09273
3793.48628	0.09461
3791.55771	0.09584
3789.62915	0.09680
3787.70059	0.09804
3785.77202	0.09955
3783.84346	0.10115
3781.91489	0.10269
3779.98633	0.10410
3778.05776	0.10571
3776.12920	0.10731
3774.20063	0.10863
3772.27207	0.10997
3770.34351	0.11149
3768.41494	0.11323
3766.48638	0.11490
3764.55781	0.11694
3762.62925	0.11934
3760.70068	0.12139
3758.77212	0.12344
3756.84355	0.12584
3754.91499	0.12762
3752.98643	0.12859
3751.05786	0.13008
3749.12930	0.13366
3747.20073	0.13726
3745.27217	0.13951
3743.34360	0.14281
3741.41504	0.14687
3739.48647	0.14958
3737.55791	0.15173
3735.62935	0.15446
3733.70078	0.15882
3731.77222	0.16439
3729.84365	0.16934
3727.91509	0.17302
3725.98652	0.17703
3724.05796	0.18296
3722.12939	0.19057
3720.20083	0.19932
3718.27227	0.20849
3716.34370	0.21719
3714.41514	0.22491
3712.48657	0.23300
3710.55801	0.24410
3708.62944	0.25760
3706.70088	0.27024
3704.77231	0.28195
3702.84375	0.29481
3700.91519	0.31154
3698.98662	0.33038
3697.05806	0.34851
3695.12949	0.36741
3693.20093	0.38669
3691.27236	0.40675
3689.34380	0.43336
3687.41523	0.46836
3685.48667	0.50038
3683.55811	0.52790
3681.62954	0.55655
3679.70098	0.58787
3677.77241	0.62009
3675.84385	0.65779
3673.91528	0.70984
3671.98672	0.75358
3670.05815	0.79192
3668.12959	0.84522
3666.20103	0.89528
3664.27246	0.93680
3662.34390	0.98038
3660.41533	1.02716
3658.48677	1.07307
3656.55820	1.12173
3654.62964	1.17642
3652.70107	1.22190
3650.77251	1.25957
3648.84395	1.31222
3646.91538	1.38126
3644.98682	1.43390
3643.05825	1.47383
3641.12969	1.51425
3639.20112	1.55858
3637.27256	1.60233
3635.34399	1.64405
3633.41543	1.68574
3631.48687	1.72470
3629.55830	1.76353
3627.62974	1.81550
3625.70117	1.86677
3623.77261	1.90224
3621.84404	1.93513
3619.91548	1.97163
3617.98691	2.01617
3616.05835	2.06087
3614.12979	2.09867
3612.20122	2.13736
3610.27266	2.17537
3608.34409	2.21391
3606.41553	2.25712
3604.48696	2.29874
3602.55840	2.33514
3600.62983	2.37300
3598.70127	2.41397
3596.77271	2.45341
3594.84414	2.49322
3592.91558	2.53572
3590.98701	2.57578
3589.05845	2.61224
3587.12988	2.65551
3585.20132	2.70389
3583.27275	2.74611
3581.34419	2.78543
3579.41562	2.82658
3577.48706	2.86901
3575.55850	2.91171
3573.62993	2.95483
3571.70137	2.99516
3569.77280	3.03349
3567.84424	3.07487
3565.91567	3.12607
3563.98711	3.17740
3562.05854	3.22004
3560.12998	3.26373
3558.20142	3.31040
3556.27285	3.35508
3554.34429	3.39828
3552.41572	3.44524
3550.48716	3.49233
3548.55859	3.53462
3546.63003	3.57737
3544.70146	3.62555
3542.77290	3.67564
3540.84434	3.72372
3538.91577	3.77000
3536.98721	3.81691
3535.05864	3.86827
3533.13008	3.91903
3531.20151	3.96491
3529.27295	4.00923
3527.34438	4.05669
3525.41582	4.10455
3523.48726	4.14868
3521.55869	4.19627
3519.63013	4.24915
3517.70156	4.30054
3515.77300	4.34853
3513.84443	4.39691
3511.91587	4.44703
3509.98730	4.49564
3508.05874	4.54150
3506.13018	4.58676
3504.20161	4.63243
3502.27305	4.68142
3500.34448	4.73359
3498.41592	4.78313
3496.48735	4.82994
3494.55879	4.87606
3492.63022	4.92523
3490.70166	4.98085
3488.77310	5.03351
3486.84453	5.07358
3484.91597	5.10909
3482.98740	5.14631
3481.05884	5.18704
3479.13027	5.23636
3477.20171	5.29051
3475.27314	5.34570
3473.34458	5.40625
3471.41602	5.46418
3469.48745	5.50789
3467.55889	5.54947
3465.63032	5.59992
3463.70176	5.65399
3461.77319	5.70411
3459.84463	5.75089
3457.91606	5.79894
3455.98750	5.84901
3454.05894	5.89785
3452.13037	5.94306
3450.20181	5.98597
3448.27324	6.03231
3446.34468	6.08754
3444.41611	6.13756
3442.48755	6.18176
3440.55898	6.23111
3438.63042	6.27505
3436.70186	6.30803
3434.77329	6.35339
3432.84473	6.41819
3430.91616	6.47674
3428.98760	6.53223
3427.05903	6.59172
3425.13047	6.63747
3423.20190	6.66503
3421.27334	6.71052
3419.34478	6.77919
3417.41621	6.83462
3415.48765	6.88406
3413.55908	6.93453
3411.63052	6.97463
3409.70195	7.01205
3407.77339	7.05896
3405.84482	7.09034
3403.91626	7.10594
3401.98770	7.14198
3400.05913	7.20304
3398.13057	7.26465
3396.20200	7.31606
3394.27344	7.34340
3392.34487	7.33439
3390.41631	7.36625
3388.48774	7.44934
3386.55918	7.50170
3384.63062	7.51828
3382.70205	7.54113
3380.77349	7.56503
3378.84492	7.57870
3376.91636	7.58989
3374.98779	7.60503
3373.05923	7.65677
3371.13066	7.72770
3369.20210	7.79433
3367.27354	7.84513
3365.34497	7.87198
3363.41641	7.87740
3361.48784	7.87227
3359.55928	7.89079
3357.63071	7.88830
3355.70215	7.84813
3353.77358	7.85209
3351.84502	7.91496
3349.91646	7.92052
3347.98789	7.90275
3346.05933	7.95904
3344.13076	8.00295
3342.20220	7.98677
3340.27363	7.95008
3338.34507	7.91465
3336.41650	7.91288
3334.48794	7.94636
3332.55937	7.91659
3330.63081	7.86272
3328.70225	7.90908
3326.77368	7.99979
3324.84512	8.02451
3322.91655	8.01074
3320.98799	8.04266
3319.05942	8.09269
3317.13086	8.10146
3315.20229	8.09776
3313.27373	8.13739
3311.34517	8.16670
3309.41660	8.18011
3307.48804	8.22397
3305.55947	8.21100
3303.63091	8.14079
3301.70234	8.08146
3299.77378	8.06691
3297.84521	8.11420
3295.91665	8.22674
3293.98809	8.35585
3292.05952	8.41246
3290.13096	8.37709
3288.20239	8.27064
3286.27383	8.15246
3284.34526	8.11638
3282.41670	8.15955
3280.48813	8.14154
3278.55957	8.07154
3276.63101	8.05701
3274.70244	8.07584
3272.77388	8.10779
3270.84531	8.17871
3268.91675	8.22513
3266.98818	8.19245
3265.05962	8.14497
3263.13105	8.09771
3261.20249	8.08488
3259.27393	8.14469
3257.34536	8.24539
3255.41680	8.35833
3253.48823	8.41193
3251.55967	8.32875
3249.63110	8.21451
3247.70254	8.21997
3245.77397	8.26763
3243.84541	8.20369
3241.91685	8.13653
3239.98828	8.16462
3238.05972	8.16845
3236.13115	8.11619
3234.20259	8.11284
3232.27402	8.18202
3230.34546	8.23915
3228.41689	8.21599
3226.48833	8.16696
3224.55977	8.12031
3222.63120	8.07557
3220.70264	8.01916
3218.77407	7.97880
3216.84551	8.00232
3214.91694	7.97922
3212.98838	7.87231
3211.05981	7.84696
3209.13125	7.94371
3207.20269	8.00005
3205.27412	7.93946
3203.34556	7.85039
3201.41699	7.75360
3199.48843	7.68342
3197.55986	7.69348
3195.63130	7.72690
3193.70273	7.67485
3191.77417	7.53208
3189.84561	7.44368
3187.91704	7.47242
3185.98848	7.48837
3184.05991	7.41706
3182.13135	7.33197
3180.20278	7.27824
3178.27422	7.24141
3176.34565	7.19346
3174.41709	7.13986
3172.48853	7.10050
3170.55996	7.05037
3168.63140	6.97686
3166.70283	6.91643
3164.77427	6.87331
3162.84570	6.82436
3160.91714	6.77736
3158.98857	6.73888
3157.06001	6.67827
3155.13145	6.58831
3153.20288	6.50179
3151.27432	6.42473
3149.34575	6.34480
3147.41719	6.27195
3145.48862	6.20939
3143.56006	6.14889
3141.63149	6.08634
3139.70293	6.01043
3137.77437	5.92326
3135.84580	5.84501
3133.91724	5.78373
3131.98867	5.71931
3130.06011	5.64106
3128.13154	5.56740
3126.20298	5.50056
3124.27441	5.42551
3122.34585	5.34652
3120.41729	5.28030
3118.48872	5.22205
3116.56016	5.15889
3114.63159	5.09272
3112.70303	5.02380
3110.77446	4.94680
3108.84590	4.86890
3106.91733	4.80053
3104.98877	4.73530
3103.06021	4.66575
3101.13164	4.59667
3099.20308	4.53360
3097.27451	4.47175
3095.34595	4.40450
3093.41738	4.33582
3091.48882	4.27131
3089.56025	4.20881
3087.63169	4.14480
3085.70312	4.08014
3083.77456	4.01635
3081.84600	3.95461
3079.91743	3.89369
3077.98887	3.83089
3076.06030	3.76818
3074.13174	3.70944
3072.20317	3.65400
3070.27461	3.59751
3068.34604	3.53833
3066.41748	3.47957
3064.48892	3.42431
3062.56035	3.37042
3060.63179	3.31554
3058.70322	3.26067
3056.77466	3.20568
3054.84609	3.15111
3052.91753	3.09877
3050.98896	3.04784
3049.06040	2.99581
3047.13184	2.94348
3045.20327	2.89338
3043.27471	2.84474
3041.34614	2.79614
3039.41758	2.74835
3037.48901	2.70155
3035.56045	2.65495
3033.63188	2.60905
3031.70332	2.56386
3029.77476	2.51888
3027.84619	2.47516
3025.91763	2.43295
3023.98906	2.39097
3022.06050	2.34888
3020.13193	2.30755
3018.20337	2.26699
3016.27480	2.22652
3014.34624	2.18669
3012.41768	2.14807
3010.48911	2.11005
3008.56055	2.07262
3006.63198	2.03614
3004.70342	2.00001
3002.77485	1.96432
3000.84629	1.92983
2998.91772	1.89601
2996.98916	1.86243
2995.06060	1.83010
2993.13203	1.79905
2991.20347	1.76798
2989.27490	1.73655
2987.34634	1.70565
2985.41777	1.67588
2983.48921	1.64684
2981.56064	1.61812
2979.63208	1.58967
2977.70352	1.56151
2975.77495	1.53435
2973.84639	1.50855
2971.91782	1.48314
2969.98926	1.45736
2968.06069	1.43148
2966.13213	1.40623
2964.20356	1.38187
2962.27500	1.35799
2960.34644	1.33410
2958.41787	1.30996
2956.48931	1.28608
2954.56074	1.26270
2952.63218	1.23913
2950.70361	1.21553
2948.77505	1.19297
2946.84648	1.17173
2944.91792	1.15096
2942.98936	1.12981
2941.06079	1.10864
2939.13223	1.08819
2937.20366	1.06832
2935.27510	1.04847
2933.34653	1.02862
2931.41797	1.00911
2929.48940	0.99037
2927.56084	0.97263
2925.63228	0.95493
2923.70371	0.93702
2921.77515	0.92006
2919.84658	0.90420
2917.91802	0.88861
2915.98945	0.87246
2914.06089	0.85570
2912.13232	0.83953
2910.20376	0.82459
2908.27520	0.81023
2906.34663	0.79570
2904.41807	0.78118
2902.48950	0.76719
2900.56094	0.75361
2898.63237	0.74061
2896.70381	0.72850
2894.77524	0.71656
2892.84668	0.70418
2890.91812	0.69177
2888.98955	0.68000
2887.06099	0.66895
2885.13242	0.65813
2883.20386	0.64736
2881.27529	0.63691
2879.34673	0.62684
2877.41816	0.61719
2875.48960	0.60780
2873.56104	0.59818
2871.63247	0.58799
2869.70391	0.57723
2867.77534	0.56629
2865.84678	0.55549
2863.91821	0.54483
2861.98965	0.53445
2860.06108	0.52443
2858.13252	0.51476
2856.20396	0.50562
2854.27539	0.49689
2852.34683	0.48833
2850.41826	0.48009
2848.48970	0.47229
2846.56113	0.46488
2844.63257	0.45775
2842.70400	0.45089
2840.77544	0.44434
2838.84687	0.43792
2836.91831	0.43162
2834.98975	0.42572
2833.06118	0.42015
2831.13262	0.41452
2829.20405	0.40868
2827.27549	0.40268
2825.34692	0.39671
2823.41836	0.39094
2821.48979	0.38517
2819.56123	0.37925
2817.63267	0.37337
2815.70410	0.36784
2813.77554	0.36256
2811.84697	0.35729
2809.91841	0.35214
2807.98984	0.34712
2806.06128	0.34207
2804.13271	0.33706
2802.20415	0.33232
2800.27559	0.32773
2798.34702	0.32304
2796.41846	0.31830
2794.48989	0.31366
2792.56133	0.30914
2790.63276	0.30469
2788.70420	0.30022
2786.77563	0.29574
2784.84707	0.29160
2782.91851	0.28786
2780.98994	0.28408
2779.06138	0.28011
2777.13281	0.27621
2775.20425	0.27252
2773.27568	0.26899
2771.34712	0.26555
2769.41855	0.26209
2767.48999	0.25861
2765.56143	0.25530
2763.63286	0.25211
2761.70430	0.24892
2759.77573	0.24576
2757.84717	0.24265
2755.91860	0.23959
2753.99004	0.23660
2752.06147	0.23363
2750.13291	0.23075
2748.20435	0.22808
2746.27578	0.22552
2744.34722	0.22286
2742.41865	0.22017
2740.49009	0.21763
2738.56152	0.21526
2736.63296	0.21293
2734.70439	0.21049
2732.77583	0.20797
2730.84727	0.20558
2728.91870	0.20335
2726.99014	0.20121
2725.06157	0.19914
2723.13301	0.19712
2721.20444	0.19530
2719.27588	0.19358
2717.34731	0.19168
2715.41875	0.18968
2713.49019	0.18789
2711.56162	0.18635
2709.63306	0.18480
2707.70449	0.18310
2705.77593	0.18134
2703.84736	0.17958
2701.91880	0.17783
2699.99023	0.17628
2698.06167	0.17498
2696.13311	0.17371
2694.20454	0.17246
2692.27598	0.17130
2690.34741	0.17006
2688.41885	0.16883
2686.49028	0.16766
2684.56172	0.16639
2682.63315	0.16510
2680.70459	0.16393
2678.77603	0.16292
2676.84746	0.16207
2674.91890	0.16127
2672.99033	0.16024
2671.06177	0.15900
2669.13320	0.15790
2667.20464	0.15704
2665.27607	0.15622
2663.34751	0.15527
2661.41895	0.15425
2659.49038	0.15344
2657.56182	0.15290
2655.63325	0.15244
2653.70469	0.15193
2651.77612	0.15129
2649.84756	0.15061
2647.91899	0.15000
2645.99043	0.14944
2644.06187	0.14890
2642.13330	0.14835
2640.20474	0.14786
2638.27617	0.14743
2636.34761	0.14699
2634.41904	0.14653
2632.49048	0.14611
2630.56191	0.14581
2628.63335	0.14558
2626.70479	0.14530
2624.77622	0.14505
2622.84766	0.14487
2620.91909	0.14458
2618.99053	0.14417
2617.06196	0.14378
2615.13340	0.14364
2613.20483	0.14364
2611.27627	0.14354
2609.34771	0.14348
2607.41914	0.14369
2605.49058	0.14390
2603.56201	0.14382
2601.63345	0.14365
2599.70488	0.14353
2597.77632	0.14347
2595.84775	0.14354
2593.91919	0.14368
2591.99062	0.14379
2590.06206	0.14388
2588.13350	0.14416
2586.20493	0.14454
2584.27637	0.14477
2582.34780	0.14501
2580.41924	0.14534
2578.49067	0.14551
2576.56211	0.14563
2574.63354	0.14600
2572.70498	0.14651
2570.77642	0.14700
2568.84785	0.14741
2566.91929	0.14765
2564.99072	0.14796
2563.06216	0.14855
2561.13359	0.14919
2559.20503	0.14973
2557.27646	0.15025
2555.34790	0.15075
2553.41934	0.15124
2551.49077	0.15173
2549.56221	0.15214
2547.63364	0.15255
2545.70508	0.15312
2543.77651	0.15370
2541.84795	0.15428
2539.91938	0.15496
2537.99082	0.15577
2536.06226	0.15656
2534.13369	0.15719
2532.20513	0.15777
2530.27656	0.15854
2528.34800	0.15938
2526.41943	0.16011
2524.49087	0.16078
2522.56230	0.16148
2520.63374	0.16229
2518.70518	0.16315
2516.77661	0.16390
2514.84805	0.16464
2512.91948	0.16553
2510.99092	0.16641
2509.06235	0.16707
2507.13379	0.16769
2505.20522	0.16850
2503.27666	0.16946
2501.34810	0.17041
2499.41953	0.17134
2497.49097	0.17228
2495.56240	0.17314
2493.63384	0.17392
2491.70527	0.17477
2489.77671	0.17568
2487.84814	0.17653
2485.91958	0.17734
2483.99102	0.17823
2482.06245	0.17921
2480.13389	0.18015
2478.20532	0.18102
2476.27676	0.18180
2474.34819	0.18257
2472.41963	0.18353
2470.49106	0.18456
2468.56250	0.18547
2466.63394	0.18627
2464.70537	0.18716
2462.77681	0.18827
2460.84824	0.18939
2458.91968	0.19033
2456.99111	0.19123
2455.06255	0.19222
2453.13398	0.19324
2451.20542	0.19428
2449.27686	0.19536
2447.34829	0.19633
2445.41973	0.19715
2443.49116	0.19808
2441.56260	0.19917
2439.63403	0.20030
2437.70547	0.20141
2435.77690	0.20239
2433.84834	0.20332
2431.91978	0.20436
2429.99121	0.20547
2428.06265	0.20656
2426.13408	0.20771
2424.20552	0.20890
2422.27695	0.20999
2420.34839	0.21100
2418.41982	0.21205
2416.49126	0.21315
2414.56270	0.21428
2412.63413	0.21543
2410.70557	0.21657
2408.77700	0.21774
2406.84844	0.21895
2404.91987	0.22017
2402.99131	0.22134
2401.06274	0.22252
2399.13418	0.22381
2397.20562	0.22513
2395.27705	0.22638
2393.34849	0.22758
2391.41992	0.22875
2389.49136	0.22989
2387.56279	0.23084
2385.63423	0.23136
2383.70566	0.23114
2381.77710	0.22994
2379.84854	0.22794
2377.91997	0.22562
2375.99141	0.22308
2374.06284	0.21975
2372.13428	0.21524
2370.20571	0.21014
2368.27715	0.20523
2366.34858	0.20089
2364.42002	0.19708
2362.49146	0.19468
2360.56289	0.19497
2358.63433	0.19746
2356.70576	0.20184
2354.77720	0.20890
2352.84863	0.21805
2350.92007	0.22696
2348.99150	0.23258
2347.06294	0.23359
2345.13437	0.23054
2343.20581	0.22659
2341.27725	0.22560
2339.34868	0.22742
2337.42012	0.23044
2335.49155	0.23349
2333.56299	0.23575
2331.63442	0.23773
2329.70586	0.24081
2327.77729	0.24497
2325.84873	0.24895
2323.92017	0.25254
2321.99160	0.25645
2320.06304	0.26097
2318.13447	0.26577
2316.20591	0.27013
2314.27734	0.27363
2312.34878	0.27667
2310.42021	0.27986
2308.49165	0.28337
2306.56309	0.28696
2304.63452	0.29022
2302.70596	0.29299
2300.77739	0.29556
2298.84883	0.29818
2296.92026	0.30079
2294.99170	0.30330
2293.06313	0.30577
2291.13457	0.30832
2289.20601	0.31089
2287.27744	0.31344
2285.34888	0.31604
2283.42031	0.31862
2281.49175	0.32084
2279.56318	0.32266
2277.63462	0.32444
2275.70605	0.32641
2273.77749	0.32841
2271.84893	0.33040
2269.92036	0.33247
2267.99180	0.33459
2266.06323	0.33679
2264.13467	0.33903
2262.20610	0.34123
2260.27754	0.34347
2258.34897	0.34575
2256.42041	0.34804
2254.49185	0.35036
2252.56328	0.35263
2250.63472	0.35483
2248.70615	0.35707
2246.77759	0.35930
2244.84902	0.36156
2242.92046	0.36389
2240.99189	0.36621
2239.06333	0.36844
2237.13477	0.37066
2235.20620	0.37286
2233.27764	0.37500
2231.34907	0.37725
2229.42051	0.37962
2227.49194	0.38191
2225.56338	0.38407
2223.63481	0.38629
2221.70625	0.38864
2219.77769	0.39093
2217.84912	0.39306
2215.92056	0.39519
2213.99199	0.39736
2212.06343	0.39951
2210.13486	0.40171
2208.20630	0.40398
2206.27773	0.40611
2204.34917	0.40805
2202.42061	0.41004
2200.49204	0.41214
2198.56348	0.41424
2196.63491	0.41627
2194.70635	0.41825
2192.77778	0.42017
2190.84922	0.42206
2188.92065	0.42393
2186.99209	0.42580
2185.06353	0.42762
2183.13496	0.42937
2181.20640	0.43103
2179.27783	0.43261
2177.34927	0.43422
2175.42070	0.43580
2173.49214	0.43721
2171.56357	0.43856
2169.63501	0.43999
2167.70645	0.44143
2165.77788	0.44277
2163.84932	0.44405
2161.92075	0.44535
2159.99219	0.44647
2158.06362	0.44731
2156.13506	0.44805
2154.20649	0.44894
2152.27793	0.44992
2150.34937	0.45071
2148.42080	0.45123
2146.49224	0.45175
2144.56367	0.45232
2142.63511	0.45278
2140.70654	0.45316
2138.77798	0.45352
2136.84941	0.45380
2134.92085	0.45392
2132.99229	0.45391
2131.06372	0.45382
2129.13516	0.45366
2127.20659	0.45345
2125.27803	0.45319
2123.34946	0.45280
2121.42090	0.45230
2119.49233	0.45175
2117.56377	0.45118
2115.63521	0.45057
2113.70664	0.44984
2111.77808	0.44894
2109.84951	0.44790
2107.92095	0.44677
2105.99238	0.44551
2104.06382	0.44426
2102.13525	0.44308
2100.20669	0.44188
2098.27812	0.44049
2096.34956	0.43895
2094.42100	0.43739
2092.49243	0.43577
2090.56387	0.43402
2088.63530	0.43223
2086.70674	0.43053
2084.77817	0.42880
2082.84961	0.42696
2080.92104	0.42500
2078.99248	0.42292
2077.06392	0.42078
2075.13535	0.41870
2073.20679	0.41663
2071.27822	0.41441
2069.34966	0.41207
2067.42109	0.40976
2065.49253	0.40746
2063.56396	0.40505
2061.63540	0.40262
2059.70684	0.40025
2057.77827	0.39781
2055.84971	0.39525
2053.92114	0.39263
2051.99258	0.39000
2050.06401	0.38737
2048.13545	0.38480
2046.20688	0.38217
2044.27832	0.37951
2042.34976	0.37687
2040.42119	0.37421
2038.49263	0.37155
2036.56406	0.36889
2034.63550	0.36610
2032.70693	0.36320
2030.77837	0.36040
2028.84980	0.35767
2026.92124	0.35490
2024.99268	0.35215
2023.06411	0.34948
2021.13555	0.34679
2019.20698	0.34399
2017.27842	0.34113
2015.34985	0.33839
2013.42129	0.33576
2011.49272	0.33299
2009.56416	0.33017
2007.63560	0.32746
2005.70703	0.32484
2003.77847	0.32217
2001.84990	0.31946
1999.92134	0.31684
1997.99277	0.31430
1996.06421	0.31176
1994.13564	0.30915
1992.20708	0.30649
1990.27852	0.30389
1988.34995	0.30151
1986.42139	0.29920
1984.49282	0.29684
1982.56426	0.29445
1980.63569	0.29209
1978.70713	0.28975
1976.77856	0.28751
1974.85000	0.28538
1972.92144	0.28323
1970.99287	0.28110
1969.06431	0.27897
1967.13574	0.27680
1965.20718	0.27474
1963.27861	0.27284
1961.35005	0.27091
1959.42148	0.26890
1957.49292	0.26698
1955.56436	0.26522
1953.63579	0.26356
1951.70723	0.26189
1949.77866	0.26018
1947.85010	0.25852
1945.92153	0.25699
1943.99297	0.25555
1942.06440	0.25410
1940.13584	0.25268
1938.20728	0.25136
1936.27871	0.25015
1934.35015	0.24890
1932.42158	0.24764
1930.49302	0.24643
1928.56445	0.24528
1926.63589	0.24411
1924.70732	0.24289
1922.77876	0.24172
1920.85020	0.24073
1918.92163	0.23990
1916.99307	0.23914
1915.06450	0.23842
1913.13594	0.23761
1911.20737	0.23676
1909.27881	0.23597
1907.35024	0.23530
1905.42168	0.23470
1903.49312	0.23418
1901.56455	0.23363
1899.63599	0.23303
1897.70742	0.23254
1895.77886	0.23216
1893.85029	0.23184
1891.92173	0.23149
1889.99316	0.23120
1888.06460	0.23100
1886.13604	0.23080
1884.20747	0.23058
1882.27891	0.23038
1880.35034	0.23025
1878.42178	0.23016
1876.49321	0.23013
1874.56465	0.23009
1872.63608	0.23011
1870.70752	0.23014
1868.77896	0.23034
1866.85039	0.23074
1864.92183	0.23111
1862.99326	0.23138
1861.06470	0.23159
1859.13613	0.23190
1857.20757	0.23227
1855.27900	0.23271
1853.35044	0.23317
1851.42187	0.23371
1849.49331	0.23420
1847.56475	0.23471
1845.63618	0.23533
1843.70762	0.23618
1841.77905	0.23707
1839.85049	0.23772
1837.92192	0.23849
1835.99336	0.23942
1834.06479	0.24035
1832.13623	0.24118
1830.20767	0.24238
1828.27910	0.24395
1826.35054	0.24517
1824.42197	0.24651
1822.49341	0.24798
1820.56484	0.24936
1818.63628	0.25069
1816.70771	0.25227
1814.77915	0.25389
1812.85059	0.25552
1810.92202	0.25740
1808.99346	0.25951
1807.06489	0.26165
1805.13633	0.26364
1803.20776	0.26563
1801.27920	0.26780
1799.35063	0.27045
1797.42207	0.27312
1795.49351	0.27554
1793.56494	0.27802
1791.63638	0.28147
1789.70781	0.28539
1787.77925	0.28845
1785.85068	0.29163
1783.92212	0.29526
1781.99355	0.29913
1780.06499	0.30323
1778.13643	0.30761
1776.20786	0.31165
1774.27930	0.31552
1772.35073	0.32071
1770.42217	0.32712
1768.49360	0.33302
1766.56504	0.33856
1764.63647	0.34393
1762.70791	0.34954
1760.77935	0.35670
1758.85078	0.36368
1756.92222	0.37088
1754.99365	0.37890
1753.06509	0.38592
1751.13652	0.39366
1749.20796	0.40360
1747.27939	0.41406
1745.35083	0.42348
1743.42227	0.43327
1741.49370	0.44388
1739.56514	0.45636
1737.63657	0.46893
1735.70801	0.47962
1733.77944	0.49551
1731.85088	0.51543
1729.92231	0.53162
1727.99375	0.54773
1726.06519	0.56470
1724.13662	0.58303
1722.20806	0.60288
1720.27949	0.62102
1718.35093	0.64167
1716.42236	0.67282
1714.49380	0.70385
1712.56523	0.72943
1710.63667	0.75383
1708.70811	0.77942
1706.77954	0.80796
1704.85098	0.84231
1702.92241	0.87337
1700.99385	0.90374
1699.06528	0.94897
1697.13672	0.99121
1695.20815	1.03523
1693.27959	1.07828
1691.35103	1.11251
1689.42246	1.15136
1687.49390	1.19185
1685.56533	1.22994
1683.63677	1.28952
1681.70820	1.35419
1679.77964	1.39627
1677.85107	1.43496
1675.92251	1.47835
1673.99395	1.53253
1672.06538	1.58121
1670.13682	1.62918
1668.20825	1.69271
1666.27969	1.74444
1664.35112	1.78753
1662.42256	1.84149
1660.49399	1.90281
1658.56543	1.95036
1656.63687	1.98778
1654.70830	2.02170
1652.77974	2.07776
1650.85117	2.13365
1648.92261	2.15421
1646.99404	2.17989
1645.06548	2.20874
1643.13691	2.22704
1641.20835	2.23757
1639.27979	2.24717
1637.35122	2.25314
1635.42266	2.25231
1633.49409	2.24448
1631.56553	2.23243
1629.63696	2.21696
1627.70840	2.19001
1625.77983	2.15847
1623.85127	2.11819
1621.92271	2.06775
1619.99414	2.02308
1618.06558	1.98002
1616.13701	1.91918
1614.20845	1.85708
1612.27988	1.80936
1610.35132	1.75934
1608.42275	1.70460
1606.49419	1.65010
1604.56562	1.59985
1602.63706	1.55132
1600.70850	1.50383
1598.77993	1.46030
1596.85137	1.41948
1594.92280	1.37992
1592.99424	1.34221
1591.06567	1.30776
1589.13711	1.27505
1587.20854	1.24440
1585.27998	1.21633
1583.35142	1.19021
1581.42285	1.16623
1579.49429	1.14558
1577.56572	1.12681
1575.63716	1.10438
1573.70859	1.08509
1571.78003	1.07228
1569.85146	1.05859
1567.92290	1.04359
1565.99434	1.03234
1564.06577	1.02368
1562.13721	1.01693
1560.20864	1.01153
1558.28008	1.00452
1556.35151	1.00020
1554.42295	0.99794
1552.49438	0.99529
1550.56582	0.99157
1548.63726	0.98601
1546.70869	0.97891
1544.78013	0.96958
1542.85156	0.95752
1540.92300	0.94157
1538.99443	0.92039
1537.06587	0.90601
1535.13730	0.89540
1533.20874	0.88068
1531.28018	0.86523
1529.35161	0.85390
1527.42305	0.84283
1525.49448	0.83124
1523.56592	0.82122
1521.63735	0.81163
1519.70879	0.80226
1517.78022	0.79437
1515.85166	0.78534
1513.92310	0.77608
1511.99453	0.76801
1510.06597	0.76045
1508.13740	0.75275
1506.20884	0.74149
1504.28027	0.73258
1502.35171	0.72758
1500.42314	0.72288
1498.49458	0.71760
1496.56602	0.71136
1494.63745	0.70530
1492.70889	0.70047
1490.78032	0.69588
1488.85176	0.69080
1486.92319	0.68655
1484.99463	0.68323
1483.06606	0.68031
1481.13750	0.67751
1479.20894	0.67494
1477.28037	0.67287
1475.35181	0.67125
1473.42324	0.66983
1471.49468	0.66805
1469.56611	0.66603
1467.63755	0.66380
1465.70898	0.66138
1463.78042	0.65944
1461.85186	0.65845
1459.92329	0.65776
1457.99473	0.65691
1456.06616	0.65580
1454.13760	0.65420
1452.20903	0.65246
1450.28047	0.65062
1448.35190	0.64855
1446.42334	0.64635
1444.49478	0.64447
1442.56621	0.64270
1440.63765	0.64066
1438.70908	0.63846
1436.78052	0.63580
1434.85195	0.63281
1432.92339	0.63046
1430.99482	0.62871
1429.06626	0.62747
1427.13770	0.62682
1425.20913	0.62648
1423.28057	0.62612
1421.35200	0.62549
1419.42344	0.62477
1417.49487	0.62411
1415.56631	0.62322
1413.63774	0.62239
1411.70918	0.62189
1409.78062	0.62176
1407.85205	0.62191
1405.92349	0.62225
1403.99492	0.62262
1402.06636	0.62252
1400.13779	0.62176
1398.20923	0.62029
1396.28066	0.61827
1394.35210	0.61571
1392.42354	0.61275
1390.49497	0.60972
1388.56641	0.60657
1386.63784	0.60324
1384.70928	0.60002
1382.78071	0.59701
1380.85215	0.59411
1378.92358	0.59141
1376.99502	0.58917
1375.06646	0.58755
1373.13789	0.58643
1371.20933	0.58564
1369.28076	0.58485
1367.35220	0.58373
1365.42363	0.58233
1363.49507	0.58093
1361.56650	0.57974
1359.63794	0.57870
1357.70937	0.57760
1355.78081	0.57647
1353.85225	0.57544
1351.92368	0.57456
1349.99512	0.57387
1348.06655	0.57320
1346.13799	0.57240
1344.20942	0.57155
1342.28086	0.57068
1340.35229	0.56980
1338.42373	0.56911
1336.49517	0.56865
1334.56660	0.56817
1332.63804	0.56764
1330.70947	0.56713
1328.78091	0.56683
1326.85234	0.56684
1324.92378	0.56698
1322.99521	0.56707
1321.06665	0.56705
1319.13809	0.56698
1317.20952	0.56683
1315.28096	0.56656
1313.35239	0.56619
1311.42383	0.56561
1309.49526	0.56488
1307.56670	0.56419
1305.63813	0.56359
1303.70957	0.56294
1301.78101	0.56221
1299.85244	0.56133
1297.92388	0.56040
1295.99531	0.55943
1294.06675	0.55833
1292.13818	0.55734
1290.20962	0.55663
1288.28105	0.55593
1286.35249	0.55503
1284.42393	0.55399
1282.49536	0.55291
1280.56680	0.55194
1278.63823	0.55113
1276.70967	0.55026
1274.78110	0.54926
1272.85254	0.54836
1270.92397	0.54768
1268.99541	0.54715
1267.06685	0.54663
1265.13828	0.54607
1263.20972	0.54543
1261.28115	0.54473
1259.35259	0.54406
1257.42402	0.54346
1255.49546	0.54299
1253.56689	0.54272
1251.63833	0.54268
1249.70977	0.54282
1247.78120	0.54280
1245.85264	0.54247
1243.92407	0.54195
1241.99551	0.54124
1240.06694	0.54033
1238.13838	0.53919
1236.20981	0.53778
1234.28125	0.53626
1232.35269	0.53485
1230.42412	0.53347
1228.49556	0.53201
1226.56699	0.53057
1224.63843	0.52930
1222.70986	0.52810
1220.78130	0.52690
1218.85273	0.52578
1216.92417	0.52472
1214.99561	0.52375
1213.06704	0.52294
1211.13848	0.52226
1209.20991	0.52173
1207.28135	0.52128
1205.35278	0.52061
1203.42422	0.51972
1201.49565	0.51881
1199.56709	0.51793
1197.63853	0.51714
1195.70996	0.51654
1193.78140	0.51608
1191.85283	0.51559
1189.92427	0.51504
1187.99570	0.51459
1186.06714	0.51428
1184.13857	0.51414
1182.21001	0.51433
1180.28145	0.51497
1178.35288	0.51591
1176.42432	0.51687
1174.49575	0.51763
1172.56719	0.51814
1170.63862	0.51846
1168.71006	0.51871
1166.78149	0.51886
1164.85293	0.51892
1162.92437	0.51897
1160.99580	0.51893
1159.06724	0.51862
1157.13867	0.51799
1155.21011	0.51715
1153.28154	0.51614
1151.35298	0.51475
1149.42441	0.51275
1147.49585	0.51026
1145.56729	0.50771
1143.63872	0.50533
1141.71016	0.50311
1139.78159	0.50100
1137.85303	0.49918
1135.92446	0.49771
1133.99590	0.49638
1132.06733	0.49536
1130.13877	0.49467
1128.21021	0.49374
1126.28164	0.49257
1124.35308	0.49155
1122.42451	0.49074
1120.49595	0.49023
1118.56738	0.49029
1116.63882	0.49081
1114.71025	0.49137
1112.78169	0.49175
1110.85312	0.49206
1108.92456	0.49267
1106.99600	0.49365
1105.06743	0.49473
1103.13887	0.49580
1101.21030	0.49709
1099.28174	0.49890
1097.35317	0.50120
1095.42461	0.50396
1093.49604	0.50746
1091.56748	0.51200
1089.63892	0.51767
1087.71035	0.52418
1085.78179	0.53114
1083.85322	0.53838
1081.92466	0.54540
1079.99609	0.55112
1078.06753	0.55441
1076.13896	0.55481
1074.21040	0.55247
1072.28184	0.54770
1070.35327	0.54141
1068.42471	0.53456
1066.49614	0.52764
1064.56758	0.52123
1062.63901	0.51557
1060.71045	0.51046
1058.78188	0.50602
1056.85332	0.50232
1054.92476	0.49900
1052.99619	0.49593
1051.06763	0.49322
1049.13906	0.49105
1047.21050	0.48950
1045.28193	0.48862
1043.35337	0.48822
1041.42480	0.48775
1039.49624	0.48712
1037.56768	0.48675
1035.63911	0.48663
1033.71055	0.48647
1031.78198	0.48618
1029.85342	0.48565
1027.92485	0.48488
1025.99629	0.48422
1024.06772	0.48395
1022.13916	0.48385
1020.21060	0.48384
1018.28203	0.48426
1016.35347	0.48505
1014.42490	0.48572
1012.49634	0.48617
1010.56777	0.48670
1008.63921	0.48747
1006.71064	0.48863
1004.78208	0.49026
1002.85352	0.49235
1000.92495	0.49488
998.99639	0.49796
997.06782	0.50172
995.13926	0.50593
993.21069	0.50992
991.28213	0.51322
989.35356	0.51566
987.42500	0.51709
985.49644	0.51778
983.56787	0.51823
981.63931	0.51892
979.71074	0.52014
977.78218	0.52195
975.85361	0.52422
973.92505	0.52678
971.99648	0.52971
970.06792	0.53324
968.13936	0.53721
966.21079	0.54145
964.28223	0.54586
962.35366	0.55032
960.42510	0.55512
958.49653	0.56060
956.56797	0.56659
954.63940	0.57277
952.71084	0.57911
950.78228	0.58566
948.85371	0.59218
946.92515	0.59840
944.99658	0.60446
943.06802	0.61049
941.13945	0.61678
939.21089	0.62323
937.28232	0.62910
935.35376	0.63450
933.42520	0.64000
931.49663	0.64526
929.56807	0.65005
927.63950	0.65531
925.71094	0.66184
923.78237	0.66884
921.85381	0.67546
919.92524	0.68207
917.99668	0.68888
916.06812	0.69567
914.13955	0.70258
912.21099	0.71018
910.28242	0.71900
908.35386	0.72853
906.42529	0.73742
904.49673	0.74553
902.56816	0.75400
900.63960	0.76355
898.71104	0.77378
896.78247	0.78368
894.85391	0.79256
892.92534	0.80063
890.99678	0.80942
889.06821	0.82022
887.13965	0.83206
885.21108	0.84309
883.28252	0.85380
881.35396	0.86584
879.42539	0.87768
877.49683	0.88852
875.56826	0.90045
873.63970	0.91311
871.71113	0.92500
869.78257	0.93624
867.85400	0.94819
865.92544	0.96127
863.99687	0.97401
862.06831	0.98578
860.13975	0.99707
858.21118	1.00826
856.28262	1.01873
854.35405	1.02848
852.42549	1.03887
850.49692	1.05054
848.56836	1.06415
846.63979	1.07788
844.71123	1.08814
842.78267	1.09718
840.85410	1.10888
838.92554	1.12261
836.99697	1.13696
835.06841	1.14829
833.13984	1.15347
831.21128	1.15779
829.28271	1.16976
827.35415	1.18616
825.42559	1.19624
823.49702	1.20551
821.56846	1.22005
819.63989	1.22889
817.71133	1.22961
815.78276	1.23316
813.85420	1.24295
811.92563	1.26152
809.99707	1.29253
808.06851	1.31555
806.13994	1.31468
804.21138	1.32223
802.28281	1.34825
800.35425	1.34511
798.42568	1.31531
796.49712	1.30682
794.56855	1.33729
792.63999	1.38416
790.71143	1.38150
788.78286	1.36269
786.85430	1.38371
784.92573	1.38133
782.99717	1.33102
781.06860	1.29684
779.14004	1.28916
777.21147	1.31569
775.28291	1.39738
773.35435	1.43770
771.42578	1.35988
769.49722	1.27192
767.56865	1.20362
765.64009	1.15014
763.71152	1.12830
761.78296	1.15143
759.85439	1.19514
757.92583	1.22111
755.99727	1.20809
754.06870	1.16488
752.14014	1.11881
750.21157	1.05793
748.28301	0.98528
746.35444	0.94485
744.42588	0.96044
742.49731	0.99824
740.56875	0.95403
738.64019	0.83142
736.71162	0.77100
734.78306	0.79771
732.85449	0.71018
730.92593	0.50861
728.99736	0.39198
727.06880	0.37726
725.14023	0.38798
723.21167	0.38536
721.28311	0.36872
719.35454	0.26809
717.42598	0.13523
715.49741	0.07002
713.56885	0.05482
711.64028	0.03753
709.71172	0.00719
707.78315	-0.00915
705.85459	-0.03204
703.92603	-0.05412
701.99746	0.01443
700.06890	0.11905
698.14033	0.21219
696.21177	0.26447
694.28320	0.22079
692.35464	0.14166
690.42607	0.10979
688.49751	0.09321
686.56895	0.05314
684.64038	0.06159
682.71182	0.19905
680.78325	0.33089
678.85469	0.34002
676.92612	0.32864
674.99756	0.32127
673.06899	0.28294
671.14043	0.17542
669.21187	0.06233
667.28330	0.03382
665.35474	0.10773
663.42617	0.17592
661.49761	0.18678
659.56904	0.21067
657.64048	0.26525
655.71191	0.31490
653.78335	0.35586
651.85479	0.37416
649.92622	0.31066
647.99766	0.20982
646.06909	0.15102
644.14053	0.16168
642.21196	0.14234
640.28340	0.08285
638.35483	0.03111
636.42627	0.03598
634.49771	0.11329
632.56914	0.19203
630.64058	0.21410
628.71201	0.24931
626.78345	0.27860
624.85488	0.24377
622.92632	0.25237
620.99775	0.31336
619.06919	0.27826
617.14062	0.22802
615.21206	0.19702
613.28350	0.12403
611.35493	0.08032
609.42637	0.11812
607.49780	0.20761
605.56924	0.26593
603.64067	0.25515
601.71211	0.17814
599.78354	0.10468
597.85498	0.08464
595.92642	0.08582
593.99785	0.09709
592.06929	0.13951
590.14072	0.18295
588.21216	0.19350
586.28359	0.20796
584.35503	0.24388
582.42646	0.28864
580.49790	0.27545
578.56934	0.19004
576.64077	0.13543
574.71221	0.13986
572.78364	0.14912
570.85508	0.14511
568.92651	0.21883
566.99795	0.40221
565.06938	0.42045
563.14082	0.24105
561.21226	0.09799
559.28369	0.08273
557.35513	0.10950
555.42656	0.08069
553.49800	0.04239
551.56943	0.05325
549.64087	0.12156
547.71230	0.17994
545.78374	0.18997
543.85518	0.17143
541.92661	0.17383
539.99805	0.19250
538.06948	0.16478
536.14092	0.12135
534.21235	0.15219
532.28379	0.23408
530.35522	0.27925
528.42666	0.23066
526.49810	0.16437
524.56953	0.12744
522.64097	0.11661
520.71240	0.11388
518.78384	0.12502
516.85527	0.13318
514.92671	0.12455
512.99814	0.12259
511.06958	0.12167
509.14102	0.14537
507.21245	0.23360
505.28389	0.30197
503.35532	0.24231
501.42676	0.18244
499.49819	0.17588
