3997.91411	0.06059
3995.98555	0.06093
3994.05698	0.06122
3992.12842	0.06134
3990.19985	0.06149
3988.27129	0.06173
3986.34272	0.06194
3984.41416	0.06230
3982.48560	0.06283
3980.55703	0.06313
3978.62847	0.06328
3976.69990	0.06372
3974.77134	0.06427
3972.84277	0.06454
3970.91421	0.06445
3968.98564	0.06430
3967.05708	0.06453
3965.12852	0.06489
3963.19995	0.06496
3961.27139	0.06493
3959.34282	0.06504
3957.41426	0.06519
3955.48569	0.06538
3953.55713	0.06554
3951.62856	0.06572
3949.70000	0.06613
3947.77144	0.06644
3945.84287	0.06610
3943.91431	0.06558
3941.98574	0.06558
3940.05718	0.06568
3938.12861	0.06544
3936.20005	0.06542
3934.27148	0.06577
3932.34292	0.06585
3930.41436	0.06556
3928.48579	0.06530
3926.55723	0.06502
3924.62866	0.06494
3922.70010	0.06526
3920.77153	0.06541
3918.84297	0.06512
3916.91440	0.06495
3914.98584	0.06499
3913.05728	0.06492
3911.12871	0.06485
3909.20015	0.06481
3907.27158	0.06466
3905.34302	0.06457
3903.41445	0.06472
3901.48589	0.06488
3899.55732	0.06500
3897.62876	0.06497
3895.70020	0.06454
3893.77163	0.06399
3891.84307	0.06391
3889.91450	0.06425
3887.98594	0.06413
3886.05737	0.06391
3884.12881	0.06423
3882.20024	0.06458
3880.27168	0.06479
3878.34312	0.06510
3876.41455	0.06516
3874.48599	0.06513
3872.55742	0.06546
3870.62886	0.06595
3868.70029	0.06659
3866.77173	0.06719
3864.84316	0.06730
3862.91460	0.06713
3860.98604	0.06719
3859.05747	0.06762
3857.12891	0.06789
3855.20034	0.06760
3853.27178	0.06727
3851.34321	0.06816
3849.41465	0.06915
3847.48608	0.06962
3845.55752	0.07022
3843.62896	0.07103
3841.70039	0.07162
3839.77183	0.07206
3837.84326	0.07281
3835.91470	0.07342
3833.98613	0.07370
3832.05757	0.07441
3830.12900	0.07555
3828.20044	0.07607
3826.27187	0.07638
3824.34331	0.07706
3822.41475	0.07723
3820.48618	0.07748
3818.55762	0.07894
3816.62905	0.08025
3814.70049	0.08124
3812.77192	0.08226
3810.84336	0.08325
3808.91479	0.08424
3806.98623	0.08534
3805.05767	0.08658
3803.12910	0.08742
3801.20054	0.08822
3799.27197	0.08962
3797.34341	0.09086
3795.41484	0.09229
3793.48628	0.09388
3791.55771	0.09497
3789.62915	0.09595
3787.70059	0.09734
3785.77202	0.09905
3783.84346	0.10072
3781.91489	0.10192
3779.98633	0.10294
3778.05776	0.10459
3776.12920	0.10651
3774.20063	0.10804
3772.27207	0.10930
3770.34351	0.11076
3768.41494	0.11286
3766.48638	0.11493
3764.55781	0.11680
3762.62925	0.11861
3760.70068	0.12014
3758.77212	0.12201
3756.84355	0.12469
3754.91499	0.12722
3752.98643	0.12902
3751.05786	0.13104
3749.12930	0.13443
3747.20073	0.13706
3745.27217	0.13847
3743.34360	0.14131
3741.41504	0.14477
3739.48647	0.14629
3737.55791	0.14696
3735.62935	0.14868
3733.70078	0.15260
3731.77222	0.15686
3729.84365	0.15987
3727.91509	0.16249
3725.98652	0.16679
3724.05796	0.17407
3722.12939	0.18323
3720.20083	0.19309
3718.27227	0.20329
3716.34370	0.21314
3714.41514	0.22160
3712.48657	0.22945
3710.55801	0.23945
3708.62944	0.25158
3706.70088	0.26282
3704.77231	0.27354
3702.84375	0.28616
3700.91519	0.30325
3698.98662	0.32241
3697.05806	0.34072
3695.12949	0.35987
3693.20093	0.37921
3691.27236	0.39962
3689.34380	0.42782
3687.41523	0.46472
3685.48667	0.49717
3683.55811	0.52423
3681.62954	0.55220
3679.70098	0.58283
3677.77241	0.61479
3675.84385	0.65317
3673.91528	0.70624
3671.98672	0.75000
3670.05815	0.78834
3668.12959	0.84178
3666.20103	0.89122
3664.27246	0.93212
3662.34390	0.97580
3660.41533	1.02304
3658.48677	1.06922
3656.55820	1.11777
3654.62964	1.17216
3652.70107	1.21762
3650.77251	1.25550
3648.84395	1.30800
3646.91538	1.37652
3644.98682	1.42884
3643.05825	1.46879
3641.12969	1.50923
3639.20112	1.55330
3637.27256	1.59690
3635.34399	1.63832
3633.41543	1.67949
3631.48687	1.71851
3629.55830	1.75748
3627.62974	1.80902
3625.70117	1.86066
3623.77261	1.89693
3621.84404	1.93031
3619.91548	1.96830
3617.98691	2.01552
3616.05835	2.06162
3614.12979	2.09976
3612.20122	2.13932
3610.27266	2.17865
3608.34409	2.21745
3606.41553	2.25924
3604.48696	2.29887
3602.55840	2.33336
3600.62983	2.37008
3598.70127	2.41149
3596.77271	2.45262
3594.84414	2.49405
3592.91558	2.53707
3590.98701	2.57686
3589.05845	2.61307
3587.12988	2.65722
3585.20132	2.70768
3583.27275	2.75124
3581.34419	2.79136
3579.41562	2.83308
3577.48706	2.87507
3575.55850	2.91676
3573.62993	2.96060
3571.70137	3.00393
3569.77280	3.04421
3567.84424	3.08489
3565.91567	3.13406
3563.98711	3.18413
3562.05854	3.22808
3560.12998	3.27334
3558.20142	3.31962
3556.27285	3.36406
3554.34429	3.40846
3552.41572	3.45712
3550.48716	3.50763
3548.55859	3.55405
3546.63003	3.59527
3544.70146	3.63730
3542.77290	3.68481
3540.84434	3.73371
3538.91577	3.78155
3536.98721	3.82831
3535.05864	3.87529
3533.13008	3.92292
3531.20151	3.97035
3529.27295	4.01577
3527.34438	4.06308
3525.41582	4.11602
3523.48726	4.16909
3521.55869	4.21744
3519.63013	4.26163
3517.70156	4.30667
3515.77300	4.35418
3513.84443	4.40168
3511.91587	4.44721
3509.98730	4.49448
3508.05874	4.54698
3506.13018	4.59692
3504.20161	4.64102
3502.27305	4.69282
3500.34448	4.75132
3498.41592	4.79614
3496.48735	4.83236
3494.55879	4.87811
3492.63022	4.93301
3490.70166	4.98628
3488.77310	5.03273
3486.84453	5.07402
3484.91597	5.11723
3482.98740	5.16754
3481.05884	5.22085
3479.13027	5.27004
3477.20171	5.31797
3475.27314	5.36760
3473.34458	5.41318
3471.41602	5.45306
3469.48745	5.49556
3467.55889	5.55115
3465.63032	5.61496
3463.70176	5.67267
3461.77319	5.72202
3459.84463	5.77158
3457.91606	5.82202
3455.98750	5.86491
3454.05894	5.90544
3452.13037	5.96014
3450.20181	6.02101
3448.27324	6.06530
3446.34468	6.09985
3444.41611	6.14479
3442.48755	6.20379
3440.55898	6.25744
3438.63042	6.29257
3436.70186	6.32675
3434.77329	6.38095
3432.84473	6.44819
3430.91616	6.50426
3428.98760	6.54416
3427.05903	6.58547
3425.13047	6.64118
3423.20190	6.69323
3421.27334	6.74181
3419.34478	6.79831
3417.41621	6.86659
3415.48765	6.93048
3413.55908	6.94632
3411.63052	6.95237
3409.70195	6.99879
3407.77339	7.06002
3405.84482	7.11063
3403.91626	7.15561
3401.98770	7.18990
3400.05913	7.23691
3398.13057	7.31370
3396.20200	7.37363
3394.27344	7.40704
3392.34487	7.44115
3390.41631	7.45014
3388.48774	7.42770
3386.55918	7.45817
3384.63062	7.54469
3382.70205	7.61616
3380.77349	7.63264
3378.84492	7.62941
3376.91636	7.67603
3374.98779	7.71599
3373.05923	7.72572
3371.13066	7.75771
3369.20210	7.76908
3367.27354	7.75261
3365.34497	7.80021
3363.41641	7.83589
3361.48784	7.77760
3359.55928	7.75575
3357.63071	7.80864
3355.70215	7.86959
3353.77358	7.89061
3351.84502	7.90201
3349.91646	7.92157
3347.98789	7.92715
3346.05933	7.92808
3344.13076	7.95183
3342.20220	7.99564
3340.27363	8.02865
3338.34507	8.03508
3336.41650	7.99763
3334.48794	7.97133
3332.55937	7.96836
3330.63081	7.98437
3328.70225	8.04026
3326.77368	8.08356
3324.84512	8.08427
3322.91655	8.08455
3320.98799	8.13365
3319.05942	8.21859
3317.13086	8.27615
3315.20229	8.25308
3313.27373	8.24514
3311.34517	8.28562
3309.41660	8.25757
3307.48804	8.15424
3305.55947	8.07348
3303.63091	8.06762
3301.70234	8.07085
3299.77378	8.07723
3297.84521	8.10172
3295.91665	8.08841
3293.98809	8.07373
3292.05952	8.10154
3290.13096	8.12974
3288.20239	8.18051
3286.27383	8.25403
3284.34526	8.24240
3282.41670	8.21112
3280.48813	8.23304
3278.55957	8.19760
3276.63101	8.09470
3274.70244	8.08313
3272.77388	8.12537
3270.84531	8.12221
3268.91675	8.22044
3266.98818	8.37724
3265.05962	8.37717
3263.13105	8.30856
3261.20249	8.29202
3259.27393	8.28754
3257.34536	8.28871
3255.41680	8.30516
3253.48823	8.25590
3251.55967	8.13323
3249.63110	8.08084
3247.70254	8.13952
3245.77397	8.16607
3243.84541	8.12296
3241.91685	8.10639
3239.98828	8.12538
3238.05972	8.15933
3236.13115	8.18334
3234.20259	8.12767
3232.27402	8.04855
3230.34546	8.06369
3228.41689	8.12919
3226.48833	8.18493
3224.55977	8.21631
3222.63120	8.17093
3220.70264	8.05316
3218.77407	7.92186
3216.84551	7.85674
3214.91694	7.86425
3212.98838	7.86937
3211.05981	7.84913
3209.13125	7.83776
3207.20269	7.88086
3205.27412	7.93469
3203.34556	7.89272
3201.41699	7.77045
3199.48843	7.68036
3197.55986	7.71881
3195.63130	7.83329
3193.70273	7.83342
3191.77417	7.68780
3189.84561	7.55312
3187.91704	7.48596
3185.98848	7.44403
3184.05991	7.41409
3182.13135	7.38119
3180.20278	7.32649
3178.27422	7.24297
3176.34565	7.16278
3174.41709	7.12827
3172.48853	7.09207
3170.55996	7.02462
3168.63140	6.97966
3166.70283	6.95018
3164.77427	6.88700
3162.84570	6.79382
3160.91714	6.70485
3158.98857	6.64344
3157.06001	6.59390
3155.13145	6.54557
3153.20288	6.49740
3151.27432	6.43439
3149.34575	6.36685
3147.41719	6.30466
3145.48862	6.23279
3143.56006	6.15723
3141.63149	6.09478
3139.70293	6.02419
3137.77437	5.93832
3135.84580	5.86385
3133.91724	5.79948
3131.98867	5.73140
3130.06011	5.66206
3128.13154	5.59139
3126.20298	5.52149
3124.27441	5.45338
3122.34585	5.37650
3120.41729	5.29484
3118.48872	5.21979
3116.56016	5.15400
3114.63159	5.09324
3112.70303	5.02669
3110.77446	4.95452
3108.84590	4.88514
3106.91733	4.82022
3104.98877	4.75312
3103.06021	4.67810
3101.13164	4.60181
3099.20308	4.53494
3097.27451	4.47698
3095.34595	4.41848
3093.41738	4.35290
3091.48882	4.28381
3089.56025	4.21787
3087.63169	4.15527
3085.70312	4.09372
3083.77456	4.03156
3081.84600	3.96860
3079.91743	3.90717
3077.98887	3.84808
3076.06030	3.78974
3074.13174	3.73163
3072.20317	3.67382
3070.27461	3.61544
3068.34604	3.55679
3066.41748	3.49979
3064.48892	3.44564
3062.56035	3.39210
3060.63179	3.33675
3058.70322	3.28081
3056.77466	3.22575
3054.84609	3.17227
3052.91753	3.12050
3050.98896	3.06953
3049.06040	3.01911
3047.13184	2.96913
3045.20327	2.91884
3043.27471	2.86895
3041.34614	2.82007
3039.41758	2.77135
3037.48901	2.72345
3035.56045	2.67763
3033.63188	2.63335
3031.70332	2.58911
3029.77476	2.54440
3027.84619	2.50007
3025.91763	2.45621
3023.98906	2.41276
3022.06050	2.37057
3020.13193	2.32979
3018.20337	2.28969
3016.27480	2.24958
3014.34624	2.20968
3012.41768	2.17044
3010.48911	2.13155
3008.56055	2.09373
3006.63198	2.05803
3004.70342	2.02319
3002.77485	1.98773
3000.84629	1.95234
2998.91772	1.91816
2996.98916	1.88520
2995.06060	1.85275
2993.13203	1.82074
2991.20347	1.78973
2989.27490	1.75972
2987.34634	1.73041
2985.41777	1.70162
2983.48921	1.67286
2981.56064	1.64415
2979.63208	1.61634
2977.70352	1.58935
2975.77495	1.56286
2973.84639	1.53704
2971.91782	1.51130
2969.98926	1.48543
2968.06069	1.46015
2966.13213	1.43539
2964.20356	1.41065
2962.27500	1.38610
2960.34644	1.36191
2958.41787	1.33773
2956.48931	1.31339
2954.56074	1.28954
2952.63218	1.26670
2950.70361	1.24431
2948.77505	1.22190
2946.84648	1.19986
2944.91792	1.17852
2942.98936	1.15748
2941.06079	1.13631
2939.13223	1.11481
2937.20366	1.09294
2935.27510	1.07113
2933.34653	1.04978
2931.41797	1.02892
2929.48940	1.00835
2927.56084	0.98785
2925.63228	0.96814
2923.70371	0.95026
2921.77515	0.93386
2919.84658	0.91803
2917.91802	0.90261
2915.98945	0.88759
2914.06089	0.87278
2912.13232	0.85835
2910.20376	0.84436
2908.27520	0.83045
2906.34663	0.81697
2904.41807	0.80399
2902.48950	0.79076
2900.56094	0.77717
2898.63237	0.76376
2896.70381	0.75099
2894.77524	0.73896
2892.84668	0.72748
2890.91812	0.71635
2888.98955	0.70533
2887.06099	0.69448
2885.13242	0.68411
2883.20386	0.67404
2881.27529	0.66392
2879.34673	0.65382
2877.41816	0.64395
2875.48960	0.63405
2873.56104	0.62365
2871.63247	0.61269
2869.70391	0.60143
2867.77534	0.59014
2865.84678	0.57864
2863.91821	0.56675
2861.98965	0.55457
2860.06108	0.54245
2858.13252	0.53079
2856.20396	0.51967
2854.27539	0.50933
2852.34683	0.50042
2850.41826	0.49306
2848.48970	0.48639
2846.56113	0.47976
2844.63257	0.47338
2842.70400	0.46772
2840.77544	0.46247
2838.84687	0.45703
2836.91831	0.45138
2834.98975	0.44564
2833.06118	0.43969
2831.13262	0.43363
2829.20405	0.42775
2827.27549	0.42198
2825.34692	0.41621
2823.41836	0.41040
2821.48979	0.40454
2819.56123	0.39877
2817.63267	0.39316
2815.70410	0.38753
2813.77554	0.38192
2811.84697	0.37649
2809.91841	0.37107
2807.98984	0.36559
2806.06128	0.36033
2804.13271	0.35534
2802.20415	0.35037
2800.27559	0.34526
2798.34702	0.34020
2796.41846	0.33531
2794.48989	0.33054
2792.56133	0.32599
2790.63276	0.32157
2788.70420	0.31710
2786.77563	0.31265
2784.84707	0.30823
2782.91851	0.30381
2780.98994	0.29967
2779.06138	0.29586
2777.13281	0.29218
2775.20425	0.28846
2773.27568	0.28460
2771.34712	0.28063
2769.41855	0.27683
2767.48999	0.27338
2765.56143	0.27000
2763.63286	0.26648
2761.70430	0.26297
2759.77573	0.25962
2757.84717	0.25655
2755.91860	0.25361
2753.99004	0.25054
2752.06147	0.24744
2750.13291	0.24436
2748.20435	0.24131
2746.27578	0.23845
2744.34722	0.23577
2742.41865	0.23310
2740.49009	0.23050
2738.56152	0.22789
2736.63296	0.22526
2734.70439	0.22281
2732.77583	0.22057
2730.84727	0.21838
2728.91870	0.21609
2726.99014	0.21370
2725.06157	0.21135
2723.13301	0.20917
2721.20444	0.20715
2719.27588	0.20517
2717.34731	0.20313
2715.41875	0.20108
2713.49019	0.19912
2711.56162	0.19734
2709.63306	0.19563
2707.70449	0.19389
2705.77593	0.19229
2703.84736	0.19075
2701.91880	0.18915
2699.99023	0.18758
2698.06167	0.18606
2696.13311	0.18460
2694.20454	0.18323
2692.27598	0.18189
2690.34741	0.18052
2688.41885	0.17908
2686.49028	0.17764
2684.56172	0.17625
2682.63315	0.17493
2680.70459	0.17372
2678.77603	0.17258
2676.84746	0.17151
2674.91890	0.17052
2672.99033	0.16948
2671.06177	0.16836
2669.13320	0.16721
2667.20464	0.16615
2665.27607	0.16523
2663.34751	0.16440
2661.41895	0.16359
2659.49038	0.16274
2657.56182	0.16187
2655.63325	0.16102
2653.70469	0.16020
2651.77612	0.15942
2649.84756	0.15870
2647.91899	0.15803
2645.99043	0.15744
2644.06187	0.15693
2642.13330	0.15640
2640.20474	0.15580
2638.27617	0.15502
2636.34761	0.15424
2634.41904	0.15369
2632.49048	0.15334
2630.56191	0.15305
2628.63335	0.15271
2626.70479	0.15230
2624.77622	0.15188
2622.84766	0.15152
2620.91909	0.15126
2618.99053	0.15104
2617.06196	0.15072
2615.13340	0.15038
2613.20483	0.15013
2611.27627	0.14994
2609.34771	0.14974
2607.41914	0.14958
2605.49058	0.14942
2603.56201	0.14932
2601.63345	0.14941
2599.70488	0.14957
2597.77632	0.14970
2595.84775	0.14971
2593.91919	0.14957
2591.99062	0.14949
2590.06206	0.14965
2588.13350	0.14994
2586.20493	0.15014
2584.27637	0.15025
2582.34780	0.15036
2580.41924	0.15054
2578.49067	0.15083
2576.56211	0.15117
2574.63354	0.15154
2572.70498	0.15192
2570.77642	0.15215
2568.84785	0.15222
2566.91929	0.15234
2564.99072	0.15270
2563.06216	0.15321
2561.13359	0.15373
2559.20503	0.15431
2557.27646	0.15493
2555.34790	0.15547
2553.41934	0.15585
2551.49077	0.15616
2549.56221	0.15655
2547.63364	0.15708
2545.70508	0.15771
2543.77651	0.15836
2541.84795	0.15901
2539.91938	0.15962
2537.99082	0.16021
2536.06226	0.16077
2534.13369	0.16125
2532.20513	0.16177
2530.27656	0.16245
2528.34800	0.16321
2526.41943	0.16401
2524.49087	0.16482
2522.56230	0.16554
2520.63374	0.16609
2518.70518	0.16669
2516.77661	0.16749
2514.84805	0.16835
2512.91948	0.16907
2510.99092	0.16977
2509.06235	0.17063
2507.13379	0.17156
2505.20522	0.17239
2503.27666	0.17314
2501.34810	0.17387
2499.41953	0.17457
2497.49097	0.17528
2495.56240	0.17609
2493.63384	0.17699
2491.70527	0.17789
2489.77671	0.17865
2487.84814	0.17929
2485.91958	0.18006
2483.99102	0.18104
2482.06245	0.18212
2480.13389	0.18316
2478.20532	0.18404
2476.27676	0.18481
2474.34819	0.18559
2472.41963	0.18636
2470.49106	0.18723
2468.56250	0.18826
2466.63394	0.18921
2464.70537	0.19002
2462.77681	0.19083
2460.84824	0.19170
2458.91968	0.19258
2456.99111	0.19358
2455.06255	0.19466
2453.13398	0.19563
2451.20542	0.19641
2449.27686	0.19714
2447.34829	0.19806
2445.41973	0.19914
2443.49116	0.20022
2441.56260	0.20115
2439.63403	0.20192
2437.70547	0.20281
2435.77690	0.20396
2433.84834	0.20513
2431.91978	0.20616
2429.99121	0.20721
2428.06265	0.20835
2426.13408	0.20948
2424.20552	0.21055
2422.27695	0.21163
2420.34839	0.21265
2418.41982	0.21365
2416.49126	0.21469
2414.56270	0.21582
2412.63413	0.21704
2410.70557	0.21822
2408.77700	0.21927
2406.84844	0.22029
2404.91987	0.22138
2402.99131	0.22258
2401.06274	0.22383
2399.13418	0.22500
2397.20562	0.22600
2395.27705	0.22706
2393.34849	0.22832
2391.41992	0.22957
2389.49136	0.23048
2387.56279	0.23078
2385.63423	0.22989
2383.70566	0.22709
2381.77710	0.22223
2379.84854	0.21566
2377.91997	0.20761
2375.99141	0.19794
2374.06284	0.18651
2372.13428	0.17346
2370.20571	0.15918
2368.27715	0.14431
2366.34858	0.12984
2364.42002	0.11735
2362.49146	0.10899
2360.56289	0.10535
2358.63433	0.10669
2356.70576	0.11543
2354.77720	0.13194
2352.84863	0.15321
2350.92007	0.17427
2348.99150	0.18723
2347.06294	0.18829
2345.13437	0.17878
2343.20581	0.16620
2341.27725	0.16062
2339.34868	0.16230
2337.42012	0.16633
2335.49155	0.17068
2333.56299	0.17563
2331.63442	0.18104
2329.70586	0.18666
2327.77729	0.19241
2325.84873	0.19896
2323.92017	0.20656
2321.99160	0.21478
2320.06304	0.22357
2318.13447	0.23256
2316.20591	0.24066
2314.27734	0.24717
2312.34878	0.25236
2310.42021	0.25732
2308.49165	0.26303
2306.56309	0.26942
2304.63452	0.27554
2302.70596	0.28045
2300.77739	0.28441
2298.84883	0.28817
2296.92026	0.29191
2294.99170	0.29555
2293.06313	0.29925
2291.13457	0.30304
2289.20601	0.30683
2287.27744	0.31055
2285.34888	0.31405
2283.42031	0.31699
2281.49175	0.31918
2279.56318	0.32082
2277.63462	0.32234
2275.70605	0.32403
2273.77749	0.32591
2271.84893	0.32782
2269.92036	0.32987
2267.99180	0.33215
2266.06323	0.33452
2264.13467	0.33691
2262.20610	0.33930
2260.27754	0.34162
2258.34897	0.34404
2256.42041	0.34658
2254.49185	0.34908
2252.56328	0.35148
2250.63472	0.35380
2248.70615	0.35612
2246.77759	0.35857
2244.84902	0.36107
2242.92046	0.36352
2240.99189	0.36590
2239.06333	0.36822
2237.13477	0.37052
2235.20620	0.37281
2233.27764	0.37513
2231.34907	0.37740
2229.42051	0.37957
2227.49194	0.38172
2225.56338	0.38396
2223.63481	0.38631
2221.70625	0.38865
2219.77769	0.39078
2217.84912	0.39284
2215.92056	0.39506
2213.99199	0.39734
2212.06343	0.39949
2210.13486	0.40154
2208.20630	0.40362
2206.27773	0.40569
2204.34917	0.40771
2202.42061	0.40970
2200.49204	0.41166
2198.56348	0.41363
2196.63491	0.41560
2194.70635	0.41761
2192.77778	0.41960
2190.84922	0.42147
2188.92065	0.42325
2186.99209	0.42508
2185.06353	0.42697
2183.13496	0.42879
2181.20640	0.43048
2179.27783	0.43209
2177.34927	0.43367
2175.42070	0.43518
2173.49214	0.43662
2171.56357	0.43808
2169.63501	0.43956
2167.70645	0.44100
2165.77788	0.44234
2163.84932	0.44351
2161.92075	0.44446
2159.99219	0.44538
2158.06362	0.44643
2156.13506	0.44754
2154.20649	0.44853
2152.27793	0.44932
2150.34937	0.44998
2148.42080	0.45065
2146.49224	0.45127
2144.56367	0.45173
2142.63511	0.45219
2140.70654	0.45260
2138.77798	0.45283
2136.84941	0.45287
2134.92085	0.45283
2132.99229	0.45278
2131.06372	0.45277
2129.13516	0.45266
2127.20659	0.45233
2125.27803	0.45196
2123.34946	0.45164
2121.42090	0.45128
2119.49233	0.45077
2117.56377	0.45010
2115.63521	0.44934
2113.70664	0.44857
2111.77808	0.44774
2109.84951	0.44679
2107.92095	0.44571
2105.99238	0.44454
2104.06382	0.44332
2102.13525	0.44201
2100.20669	0.44065
2098.27812	0.43931
2096.34956	0.43798
2094.42100	0.43646
2092.49243	0.43473
2090.56387	0.43305
2088.63530	0.43140
2086.70674	0.42965
2084.77817	0.42785
2082.84961	0.42605
2080.92104	0.42404
2078.99248	0.42187
2077.06392	0.41982
2075.13535	0.41783
2073.20679	0.41567
2071.27822	0.41335
2069.34966	0.41107
2067.42109	0.40888
2065.49253	0.40660
2063.56396	0.40411
2061.63540	0.40156
2059.70684	0.39905
2057.77827	0.39654
2055.84971	0.39404
2053.92114	0.39149
2051.99258	0.38884
2050.06401	0.38620
2048.13545	0.38360
2046.20688	0.38097
2044.27832	0.37834
2042.34976	0.37570
2040.42119	0.37301
2038.49263	0.37030
2036.56406	0.36761
2034.63550	0.36490
2032.70693	0.36209
2030.77837	0.35934
2028.84980	0.35667
2026.92124	0.35392
2024.99268	0.35107
2023.06411	0.34821
2021.13555	0.34540
2019.20698	0.34267
2017.27842	0.33993
2015.34985	0.33716
2013.42129	0.33444
2011.49272	0.33172
2009.56416	0.32905
2007.63560	0.32643
2005.70703	0.32381
2003.77847	0.32117
2001.84990	0.31852
1999.92134	0.31587
1997.99277	0.31315
1996.06421	0.31043
1994.13564	0.30792
1992.20708	0.30552
1990.27852	0.30302
1988.34995	0.30051
1986.42139	0.29803
1984.49282	0.29567
1982.56426	0.29343
1980.63569	0.29121
1978.70713	0.28901
1976.77856	0.28677
1974.85000	0.28453
1972.92144	0.28236
1970.99287	0.28029
1969.06431	0.27827
1967.13574	0.27622
1965.20718	0.27412
1963.27861	0.27208
1961.35005	0.27008
1959.42148	0.26809
1957.49292	0.26626
1955.56436	0.26455
1953.63579	0.26284
1951.70723	0.26116
1949.77866	0.25957
1947.85010	0.25797
1945.92153	0.25633
1943.99297	0.25480
1942.06440	0.25336
1940.13584	0.25191
1938.20728	0.25049
1936.27871	0.24916
1934.35015	0.24786
1932.42158	0.24662
1930.49302	0.24538
1928.56445	0.24417
1926.63589	0.24309
1924.70732	0.24213
1922.77876	0.24118
1920.85020	0.24024
1918.92163	0.23936
1916.99307	0.23853
1915.06450	0.23773
1913.13594	0.23691
1911.20737	0.23613
1909.27881	0.23540
1907.35024	0.23479
1905.42168	0.23424
1903.49312	0.23364
1901.56455	0.23299
1899.63599	0.23241
1897.70742	0.23195
1895.77886	0.23151
1893.85029	0.23111
1891.92173	0.23074
1889.99316	0.23047
1888.06460	0.23019
1886.13604	0.22993
1884.20747	0.22983
1882.27891	0.22979
1880.35034	0.22970
1878.42178	0.22959
1876.49321	0.22956
1874.56465	0.22958
1872.63608	0.22959
1870.70752	0.22956
1868.77896	0.22978
1866.85039	0.23016
1864.92183	0.23030
1862.99326	0.23042
1861.06470	0.23069
1859.13613	0.23106
1857.20757	0.23139
1855.27900	0.23185
1853.35044	0.23237
1851.42187	0.23291
1849.49331	0.23342
1847.56475	0.23398
1845.63618	0.23471
1843.70762	0.23570
1841.77905	0.23663
1839.85049	0.23720
1837.92192	0.23790
1835.99336	0.23878
1834.06479	0.23974
1832.13623	0.24065
1830.20767	0.24179
1828.27910	0.24325
1826.35054	0.24448
1824.42197	0.24572
1822.49341	0.24705
1820.56484	0.24846
1818.63628	0.24994
1816.70771	0.25157
1814.77915	0.25314
1812.85059	0.25470
1810.92202	0.25658
1808.99346	0.25875
1807.06489	0.26085
1805.13633	0.26280
1803.20776	0.26487
1801.27920	0.26713
1799.35063	0.26983
1797.42207	0.27245
1795.49351	0.27481
1793.56494	0.27737
1791.63638	0.28091
1789.70781	0.28466
1787.77925	0.28741
1785.85068	0.29037
1783.92212	0.29393
1781.99355	0.29781
1780.06499	0.30195
1778.13643	0.30638
1776.20786	0.31046
1774.27930	0.31450
1772.35073	0.31989
1770.42217	0.32608
1768.49360	0.33158
1766.56504	0.33694
1764.63647	0.34220
1762.70791	0.34765
1760.77935	0.35466
1758.85078	0.36141
1756.92222	0.36814
1754.99365	0.37552
1753.06509	0.38203
1751.13652	0.38938
1749.20796	0.39885
1747.27939	0.40897
1745.35083	0.41829
1743.42227	0.42805
1741.49370	0.43864
1739.56514	0.45124
1737.63657	0.46396
1735.70801	0.47477
1733.77944	0.49104
1731.85088	0.51141
1729.92231	0.52777
1727.99375	0.54410
1726.06519	0.56142
1724.13662	0.58006
1722.20806	0.60005
1720.27949	0.61817
1718.35093	0.63901
1716.42236	0.67066
1714.49380	0.70184
1712.56523	0.72726
1710.63667	0.75151
1708.70811	0.77713
1706.77954	0.80611
1704.85098	0.84130
1702.92241	0.87299
1700.99385	0.90404
1699.06528	0.95041
1697.13672	0.99357
1695.20815	1.03868
1693.27959	1.08300
1691.35103	1.11853
1689.42246	1.15954
1687.49390	1.20299
1685.56533	1.24435
1683.63677	1.30827
1681.70820	1.37624
1679.77964	1.42007
1677.85107	1.46120
1675.92251	1.50831
1673.99395	1.56708
1672.06538	1.61964
1670.13682	1.67142
1668.20825	1.73950
1666.27969	1.79529
1664.35112	1.84251
1662.42256	1.90162
1660.49399	1.96885
1658.56543	2.02130
1656.63687	2.06305
1654.70830	2.10047
1652.77974	2.15749
1650.85117	2.21288
1648.92261	2.23322
1646.99404	2.25677
1645.06548	2.28383
1643.13691	2.30418
1641.20835	2.31596
1639.27979	2.32487
1637.35122	2.32836
1635.42266	2.32692
1633.49409	2.32101
1631.56553	2.30678
1629.63696	2.28717
1627.70840	2.25624
1625.77983	2.22133
1623.85127	2.17885
1621.92271	2.12772
1619.99414	2.08165
1618.06558	2.03593
1616.13701	1.97130
1614.20845	1.90637
1612.27988	1.85755
1610.35132	1.80657
1608.42275	1.75056
1606.49419	1.69514
1604.56562	1.64475
1602.63706	1.59655
1600.70850	1.54962
1598.77993	1.50644
1596.85137	1.46568
1594.92280	1.42593
1592.99424	1.38757
1591.06567	1.35239
1589.13711	1.31948
1587.20854	1.28907
1585.27998	1.26095
1583.35142	1.23440
1581.42285	1.21019
1579.49429	1.18999
1577.56572	1.17216
1575.63716	1.15057
1573.70859	1.13186
1571.78003	1.11964
1569.85146	1.10729
1567.92290	1.09479
1565.99434	1.08616
1564.06577	1.07985
1562.13721	1.07495
1560.20864	1.07176
1558.28008	1.07066
1556.35151	1.07184
1554.42295	1.07234
1552.49438	1.07234
1550.56582	1.07087
1548.63726	1.06699
1546.70869	1.06077
1544.78013	1.05161
1542.85156	1.03907
1540.92300	1.02070
1538.99443	0.99373
1537.06587	0.97470
1535.13730	0.96107
1533.20874	0.94275
1531.28018	0.92363
1529.35161	0.90946
1527.42305	0.89553
1525.49448	0.88113
1523.56592	0.86895
1521.63735	0.85714
1519.70879	0.84546
1517.78022	0.83594
1515.85166	0.82514
1513.92310	0.81388
1511.99453	0.80381
1510.06597	0.79424
1508.13740	0.78452
1506.20884	0.77056
1504.28027	0.75966
1502.35171	0.75361
1500.42314	0.74788
1498.49458	0.74165
1496.56602	0.73476
1494.63745	0.72807
1492.70889	0.72254
1490.78032	0.71725
1488.85176	0.71157
1486.92319	0.70730
1484.99463	0.70434
1483.06606	0.70178
1481.13750	0.69942
1479.20894	0.69767
1477.28037	0.69680
1475.35181	0.69638
1473.42324	0.69615
1471.49468	0.69571
1469.56611	0.69445
1467.63755	0.69252
1465.70898	0.69047
1463.78042	0.68892
1461.85186	0.68823
1459.92329	0.68782
1457.99473	0.68718
1456.06616	0.68624
1454.13760	0.68452
1452.20903	0.68214
1450.28047	0.67947
1448.35190	0.67676
1446.42334	0.67409
1444.49478	0.67154
1442.56621	0.66888
1440.63765	0.66603
1438.70908	0.66315
1436.78052	0.65977
1434.85195	0.65622
1432.92339	0.65339
1430.99482	0.65131
1429.06626	0.65016
1427.13770	0.64984
1425.20913	0.64997
1423.28057	0.65050
1421.35200	0.65093
1419.42344	0.65089
1417.49487	0.65043
1415.56631	0.64960
1413.63774	0.64888
1411.70918	0.64861
1409.78062	0.64891
1407.85205	0.64959
1405.92349	0.65054
1403.99492	0.65144
1402.06636	0.65152
1400.13779	0.65060
1398.20923	0.64892
1396.28066	0.64660
1394.35210	0.64328
1392.42354	0.63927
1390.49497	0.63547
1388.56641	0.63167
1386.63784	0.62732
1384.70928	0.62278
1382.78071	0.61848
1380.85215	0.61448
1378.92358	0.61111
1376.99502	0.60856
1375.06646	0.60669
1373.13789	0.60541
1371.20933	0.60477
1369.28076	0.60437
1367.35220	0.60360
1365.42363	0.60226
1363.49507	0.60069
1361.56650	0.59917
1359.63794	0.59775
1357.70937	0.59643
1355.78081	0.59513
1353.85225	0.59391
1351.92368	0.59292
1349.99512	0.59210
1348.06655	0.59120
1346.13799	0.59015
1344.20942	0.58915
1342.28086	0.58823
1340.35229	0.58732
1338.42373	0.58652
1336.49517	0.58604
1334.56660	0.58576
1332.63804	0.58556
1330.70947	0.58546
1328.78091	0.58550
1326.85234	0.58580
1324.92378	0.58632
1322.99521	0.58694
1321.06665	0.58751
1319.13809	0.58805
1317.20952	0.58845
1315.28096	0.58849
1313.35239	0.58812
1311.42383	0.58754
1309.49526	0.58674
1307.56670	0.58576
1305.63813	0.58483
1303.70957	0.58401
1301.78101	0.58314
1299.85244	0.58208
1297.92388	0.58084
1295.99531	0.57959
1294.06675	0.57845
1292.13818	0.57732
1290.20962	0.57601
1288.28105	0.57471
1286.35249	0.57352
1284.42393	0.57235
1282.49536	0.57121
1280.56680	0.56999
1278.63823	0.56847
1276.70967	0.56695
1274.78110	0.56582
1272.85254	0.56505
1270.92397	0.56446
1268.99541	0.56399
1267.06685	0.56350
1265.13828	0.56279
1263.20972	0.56192
1261.28115	0.56101
1259.35259	0.56018
1257.42402	0.55950
1255.49546	0.55899
1253.56689	0.55863
1251.63833	0.55847
1249.70977	0.55850
1247.78120	0.55855
1245.85264	0.55831
1243.92407	0.55769
1241.99551	0.55677
1240.06694	0.55552
1238.13838	0.55395
1236.20981	0.55209
1234.28125	0.54998
1232.35269	0.54780
1230.42412	0.54571
1228.49556	0.54385
1226.56699	0.54217
1224.63843	0.54047
1222.70986	0.53872
1220.78130	0.53709
1218.85273	0.53571
1216.92417	0.53452
1214.99561	0.53341
1213.06704	0.53239
1211.13848	0.53153
1209.20991	0.53094
1207.28135	0.53055
1205.35278	0.52996
1203.42422	0.52910
1201.49565	0.52816
1199.56709	0.52711
1197.63853	0.52610
1195.70996	0.52536
1193.78140	0.52475
1191.85283	0.52412
1189.92427	0.52352
1187.99570	0.52311
1186.06714	0.52296
1184.13857	0.52313
1182.21001	0.52371
1180.28145	0.52460
1178.35288	0.52575
1176.42432	0.52712
1174.49575	0.52846
1172.56719	0.52949
1170.63862	0.53015
1168.71006	0.53067
1166.78149	0.53128
1164.85293	0.53204
1162.92437	0.53268
1160.99580	0.53303
1159.06724	0.53322
1157.13867	0.53322
1155.21011	0.53276
1153.28154	0.53160
1151.35298	0.52971
1149.42441	0.52724
1147.49585	0.52441
1145.56729	0.52152
1143.63872	0.51875
1141.71016	0.51631
1139.78159	0.51444
1137.85303	0.51305
1135.92446	0.51213
1133.99590	0.51185
1132.06733	0.51212
1130.13877	0.51249
1128.21021	0.51261
1126.28164	0.51245
1124.35308	0.51218
1122.42451	0.51200
1120.49595	0.51187
1118.56738	0.51168
1116.63882	0.51164
1114.71025	0.51217
1112.78169	0.51321
1110.85312	0.51438
1108.92456	0.51538
1106.99600	0.51626
1105.06743	0.51720
1103.13887	0.51796
1101.21030	0.51853
1099.28174	0.51935
1097.35317	0.52095
1095.42461	0.52357
1093.49604	0.52726
1091.56748	0.53232
1089.63892	0.53887
1087.71035	0.54671
1085.78179	0.55551
1083.85322	0.56437
1081.92466	0.57217
1079.99609	0.57810
1078.06753	0.58113
1076.13896	0.58064
1074.21040	0.57710
1072.28184	0.57123
1070.35327	0.56399
1068.42471	0.55665
1066.49614	0.54975
1064.56758	0.54330
1062.63901	0.53758
1060.71045	0.53280
1058.78188	0.52875
1056.85332	0.52536
1054.92476	0.52238
1052.99619	0.51946
1051.06763	0.51695
1049.13906	0.51539
1047.21050	0.51472
1045.28193	0.51450
1043.35337	0.51468
1041.42480	0.51519
1039.49624	0.51554
1037.56768	0.51554
1035.63911	0.51527
1033.71055	0.51457
1031.78198	0.51325
1029.85342	0.51142
1027.92485	0.50939
1025.99629	0.50739
1024.06772	0.50567
1022.13916	0.50441
1020.21060	0.50357
1018.28203	0.50303
1016.35347	0.50261
1014.42490	0.50227
1012.49634	0.50201
1010.56777	0.50189
1008.63921	0.50183
1006.71064	0.50189
1004.78208	0.50248
1002.85352	0.50379
1000.92495	0.50602
998.99639	0.50948
997.06782	0.51380
995.13926	0.51826
993.21069	0.52239
991.28213	0.52562
989.35356	0.52750
987.42500	0.52807
985.49644	0.52774
983.56787	0.52713
981.63931	0.52694
979.71074	0.52754
977.78218	0.52886
975.85361	0.53071
973.92505	0.53304
971.99648	0.53582
970.06792	0.53901
968.13936	0.54259
966.21079	0.54656
964.28223	0.55085
962.35366	0.55543
960.42510	0.56028
958.49653	0.56545
956.56797	0.57107
954.63940	0.57703
952.71084	0.58321
950.78228	0.58953
948.85371	0.59582
946.92515	0.60208
944.99658	0.60850
943.06802	0.61491
941.13945	0.62072
939.21089	0.62604
937.28232	0.63170
935.35376	0.63776
933.42520	0.64390
931.49663	0.64989
929.56807	0.65552
927.63950	0.66117
925.71094	0.66718
923.78237	0.67350
921.85381	0.68015
919.92524	0.68695
917.99668	0.69364
916.06812	0.70046
914.13955	0.70771
912.21099	0.71539
910.28242	0.72336
908.35386	0.73123
906.42529	0.73916
904.49673	0.74815
902.56816	0.75842
900.63960	0.76880
898.71104	0.77781
896.78247	0.78561
894.85391	0.79468
892.92534	0.80566
890.99678	0.81657
889.06821	0.82697
887.13965	0.83745
885.21108	0.84852
883.28252	0.86098
881.35396	0.87368
879.42539	0.88493
877.49683	0.89551
875.56826	0.90635
873.63970	0.91758
871.71113	0.92951
869.78257	0.94146
867.85400	0.95252
865.92544	0.96292
863.99687	0.97355
862.06831	0.98525
860.13975	0.99739
858.21118	1.00839
856.28262	1.01849
854.35405	1.02979
852.42549	1.04242
850.49692	1.05479
848.56836	1.06678
846.63979	1.07915
844.71123	1.09208
842.78267	1.10505
840.85410	1.11686
838.92554	1.12497
836.99697	1.12937
835.06841	1.13637
833.13984	1.14939
831.21128	1.16240
829.28271	1.17439
827.35415	1.19038
825.42559	1.20646
823.49702	1.21694
821.56846	1.22158
819.63989	1.22862
817.71133	1.24483
815.78276	1.26240
813.85420	1.27161
811.92563	1.27685
809.99707	1.28672
808.06851	1.30023
806.13994	1.31392
804.21138	1.31597
802.28281	1.31190
800.35425	1.33227
798.42568	1.37464
796.49712	1.39699
794.56855	1.38050
792.63999	1.35487
790.71143	1.36028
788.78286	1.39190
786.85430	1.37328
784.92573	1.32828
782.99717	1.35821
781.06860	1.44671
779.14004	1.48036
777.21147	1.45993
775.28291	1.44897
773.35435	1.45482
771.42578	1.48381
769.49722	1.43789
767.56865	1.31536
765.64009	1.25513
763.71152	1.25719
761.78296	1.21461
759.85439	1.12534
757.92583	1.09868
755.99727	1.16929
754.06870	1.22207
752.14014	1.14244
750.21157	1.11169
748.28301	1.21919
746.35444	1.30880
744.42588	1.22509
742.49731	1.15345
740.56875	1.04610
738.64019	0.89568
736.71162	0.81214
734.78306	0.83622
732.85449	0.92333
730.92593	0.68411
728.99736	0.32719
727.06880	0.08743
725.14023	-0.08615
723.21167	-0.18983
721.28311	-0.19079
719.35454	0.01432
717.42598	0.51809
715.49741	4.29298
713.56885	4.28141
711.64028	0.73364
709.71172	0.56120
707.78315	0.58328
705.85459	0.60194
703.92603	0.57805
701.99746	0.49860
700.06890	0.37669
698.14033	0.33196
696.21177	0.35255
694.28320	0.40559
692.35464	0.46814
690.42607	0.46824
688.49751	0.39809
686.56895	0.34187
684.64038	0.33944
682.71182	0.41037
680.78325	0.47624
678.85469	0.40804
676.92612	0.36463
674.99756	0.39026
673.06899	0.40830
671.14043	0.39222
669.21187	0.34383
667.28330	0.29369
665.35474	0.27240
663.42617	0.27599
661.49761	0.32384
659.56904	0.40053
657.64048	0.40448
655.71191	0.39425
653.78335	0.43426
651.85479	0.44581
649.92622	0.44843
647.99766	0.45698
646.06909	0.42075
644.14053	0.37368
642.21196	0.35418
640.28340	0.33864
638.35483	0.31883
636.42627	0.33182
634.49771	0.40331
632.56914	0.44987
630.64058	0.38996
628.71201	0.36207
626.78345	0.40126
624.85488	0.45274
622.92632	0.48953
620.99775	0.43333
619.06919	0.34348
617.14062	0.34009
615.21206	0.37079
613.28350	0.38368
611.35493	0.39951
609.42637	0.40284
607.49780	0.40937
605.56924	0.46960
603.64067	0.47009
601.71211	0.38378
599.78354	0.32598
597.85498	0.32156
595.92642	0.36950
593.99785	0.38877
592.06929	0.34044
590.14072	0.32537
588.21216	0.36326
586.28359	0.37599
584.35503	0.33300
582.42646	0.30586
580.49790	0.30231
578.56934	0.32184
576.64077	0.40251
574.71221	0.55567
572.78364	0.67014
570.85508	0.59329
568.92651	0.44217
566.99795	0.34397
565.06938	0.31641
563.14082	0.36338
561.21226	0.42360
559.28369	0.38638
557.35513	0.37387
555.42656	0.48754
553.49800	0.63756
551.56943	0.51373
549.64087	0.36750
547.71230	0.36944
545.78374	0.47175
543.85518	0.42480
541.92661	0.27255
539.99805	0.20609
538.06948	0.20099
536.14092	0.23273
534.21235	0.33209
532.28379	0.48224
530.35522	0.46370
528.42666	0.35777
526.49810	0.33241
524.56953	0.41431
522.64097	0.57331
520.71240	0.50140
518.78384	0.31311
516.85527	0.23569
514.92671	0.25633
512.99814	0.29164
511.06958	0.27898
509.14102	0.26397
507.21245	0.28360
505.28389	0.33393
503.35532	0.33245
501.42676	0.28085
499.49819	0.25562
