3997.91411	0.05220
3995.98555	0.05261
3994.05698	0.05286
3992.12842	0.05324
3990.19985	0.05384
3988.27129	0.05429
3986.34272	0.05441
3984.41416	0.05460
3982.48560	0.05483
3980.55703	0.05490
3978.62847	0.05501
3976.69990	0.05530
3974.77134	0.05572
3972.84277	0.05620
3970.91421	0.05645
3968.98564	0.05664
3967.05708	0.05709
3965.12852	0.05735
3963.19995	0.05728
3961.27139	0.05735
3959.34282	0.05742
3957.41426	0.05743
3955.48569	0.05778
3953.55713	0.05824
3951.62856	0.05877
3949.70000	0.05953
3947.77144	0.05990
3945.84287	0.05961
3943.91431	0.05935
3941.98574	0.05926
3940.05718	0.05874
3938.12861	0.05800
3936.20005	0.05759
3934.27148	0.05785
3932.34292	0.05881
3930.41436	0.05967
3928.48579	0.05950
3926.55723	0.05891
3924.62866	0.05880
3922.70010	0.05876
3920.77153	0.05845
3918.84297	0.05865
3916.91440	0.05924
3914.98584	0.05890
3913.05728	0.05784
3911.12871	0.05716
3909.20015	0.05694
3907.27158	0.05747
3905.34302	0.05906
3903.41445	0.06098
3901.48589	0.06194
3899.55732	0.06172
3897.62876	0.06068
3895.70020	0.05923
3893.77163	0.05861
3891.84307	0.05953
3889.91450	0.06042
3887.98594	0.06006
3886.05737	0.06014
3884.12881	0.06097
3882.20024	0.06164
3880.27168	0.06241
3878.34312	0.06215
3876.41455	0.06077
3874.48599	0.06051
3872.55742	0.06178
3870.62886	0.06353
3868.70029	0.06424
3866.77173	0.06322
3864.84316	0.06298
3862.91460	0.06403
3860.98604	0.06403
3859.05747	0.06317
3857.12891	0.06311
3855.20034	0.06425
3853.27178	0.06702
3851.34321	0.06943
3849.41465	0.06799
3847.48608	0.06573
3845.55752	0.06501
3843.62896	0.06634
3841.70039	0.06894
3839.77183	0.07152
3837.84326	0.07318
3835.91470	0.07325
3833.98613	0.07225
3832.05757	0.07122
3830.12900	0.07086
3828.20044	0.07146
3826.27187	0.07246
3824.34331	0.07302
3822.41475	0.07409
3820.48618	0.07728
3818.55762	0.07968
3816.62905	0.07963
3814.70049	0.07946
3812.77192	0.07887
3810.84336	0.07823
3808.91479	0.07886
3806.98623	0.08094
3805.05767	0.08349
3803.12910	0.08588
3801.20054	0.08860
3799.27197	0.08978
3797.34341	0.08903
3795.41484	0.08873
3793.48628	0.08880
3791.55771	0.08906
3789.62915	0.08990
3787.70059	0.09134
3785.77202	0.09345
3783.84346	0.09562
3781.91489	0.09698
3779.98633	0.09828
3778.05776	0.10011
3776.12920	0.10148
3774.20063	0.10256
3772.27207	0.10422
3770.34351	0.10665
3768.41494	0.10938
3766.48638	0.11175
3764.55781	0.11366
3762.62925	0.11503
3760.70068	0.11701
3758.77212	0.12051
3756.84355	0.12375
3754.91499	0.12560
3752.98643	0.12809
3751.05786	0.13279
3749.12930	0.13789
3747.20073	0.14030
3745.27217	0.14257
3743.34360	0.14756
3741.41504	0.15275
3739.48647	0.15673
3737.55791	0.16202
3735.62935	0.17025
3733.70078	0.17918
3731.77222	0.18446
3729.84365	0.18812
3727.91509	0.19245
3725.98652	0.19818
3724.05796	0.20457
3722.12939	0.20999
3720.20083	0.21448
3718.27227	0.21849
3716.34370	0.22257
3714.41514	0.22801
3712.48657	0.23771
3710.55801	0.25412
3708.62944	0.27083
3706.70088	0.28203
3704.77231	0.29211
3702.84375	0.30482
3700.91519	0.32155
3698.98662	0.33960
3697.05806	0.35642
3695.12949	0.37400
3693.20093	0.39296
3691.27236	0.41403
3689.34380	0.44097
3687.41523	0.47363
3685.48667	0.50254
3683.55811	0.52774
3681.62954	0.55501
3679.70098	0.58597
3677.77241	0.61891
3675.84385	0.65841
3673.91528	0.71114
3671.98672	0.75351
3670.05815	0.79145
3668.12959	0.84410
3666.20103	0.89150
3664.27246	0.93071
3662.34390	0.97327
3660.41533	1.01979
3658.48677	1.06609
3656.55820	1.11567
3654.62964	1.17073
3652.70107	1.21707
3650.77251	1.25825
3648.84395	1.31498
3646.91538	1.38249
3644.98682	1.43108
3643.05825	1.46912
3641.12969	1.50905
3639.20112	1.55348
3637.27256	1.59881
3635.34399	1.64372
3633.41543	1.68867
3631.48687	1.73005
3629.55830	1.77124
3627.62974	1.82543
3625.70117	1.87662
3623.77261	1.91095
3621.84404	1.94321
3619.91548	1.98015
3617.98691	2.02496
3616.05835	2.06702
3614.12979	2.10098
3612.20122	2.13763
3610.27266	2.17648
3608.34409	2.21788
3606.41553	2.26310
3604.48696	2.30474
3602.55840	2.34178
3600.62983	2.38121
3598.70127	2.42247
3596.77271	2.46148
3594.84414	2.50089
3592.91558	2.54194
3590.98701	2.58023
3589.05845	2.61576
3587.12988	2.65948
3585.20132	2.70729
3583.27275	2.74626
3581.34419	2.78291
3579.41562	2.82307
3577.48706	2.86510
3575.55850	2.90757
3573.62993	2.95179
3571.70137	2.99459
3569.77280	3.03399
3567.84424	3.07473
3565.91567	3.12565
3563.98711	3.17671
3562.05854	3.21873
3560.12998	3.26103
3558.20142	3.30632
3556.27285	3.35199
3554.34429	3.39600
3552.41572	3.44142
3550.48716	3.48844
3548.55859	3.53288
3546.63003	3.57608
3544.70146	3.62327
3542.77290	3.67309
3540.84434	3.72193
3538.91577	3.76919
3536.98721	3.81483
3535.05864	3.86371
3533.13008	3.91400
3531.20151	3.96000
3529.27295	4.00254
3527.34438	4.04602
3525.41582	4.09188
3523.48726	4.13916
3521.55869	4.18754
3519.63013	4.23616
3517.70156	4.28717
3515.77300	4.33741
3513.84443	4.38269
3511.91587	4.42849
3509.98730	4.48137
3508.05874	4.53628
3506.13018	4.58450
3504.20161	4.62743
3502.27305	4.66922
3500.34448	4.71196
3498.41592	4.75860
3496.48735	4.81204
3494.55879	4.86700
3492.63022	4.91585
3490.70166	4.95926
3488.77310	5.00207
3486.84453	5.05138
3484.91597	5.10578
3482.98740	5.15566
3481.05884	5.19984
3479.13027	5.24170
3477.20171	5.28838
3475.27314	5.34134
3473.34458	5.39057
3471.41602	5.43373
3469.48745	5.47740
3467.55889	5.52525
3465.63032	5.57806
3463.70176	5.63174
3461.77319	5.67993
3459.84463	5.72940
3457.91606	5.78039
3455.98750	5.82757
3454.05894	5.87825
3452.13037	5.93613
3450.20181	5.99736
3448.27324	6.05335
3446.34468	6.09745
3444.41611	6.13772
3442.48755	6.19308
3440.55898	6.24736
3438.63042	6.27927
3436.70186	6.30398
3434.77329	6.33630
3432.84473	6.38103
3430.91616	6.43673
3428.98760	6.50290
3427.05903	6.56857
3425.13047	6.62155
3423.20190	6.67185
3421.27334	6.72408
3419.34478	6.75592
3417.41621	6.78410
3415.48765	6.83563
3413.55908	6.88211
3411.63052	6.91495
3409.70195	6.95187
3407.77339	7.00080
3405.84482	7.04951
3403.91626	7.06899
3401.98770	7.08176
3400.05913	7.15141
3398.13057	7.22706
3396.20200	7.24850
3394.27344	7.26961
3392.34487	7.29714
3390.41631	7.33193
3388.48774	7.37068
3386.55918	7.39509
3384.63062	7.42456
3382.70205	7.47182
3380.77349	7.49571
3378.84492	7.48812
3376.91636	7.51775
3374.98779	7.60479
3373.05923	7.68758
3371.13066	7.69163
3369.20210	7.65150
3367.27354	7.59687
3365.34497	7.56081
3363.41641	7.61556
3361.48784	7.73439
3359.55928	7.79530
3357.63071	7.76895
3355.70215	7.77961
3353.77358	7.82552
3351.84502	7.83082
3349.91646	7.82036
3347.98789	7.83963
3346.05933	7.85077
3344.13076	7.81504
3342.20220	7.78307
3340.27363	7.79876
3338.34507	7.85225
3336.41650	7.87219
3334.48794	7.87379
3332.55937	7.90775
3330.63081	7.93801
3328.70225	7.92013
3326.77368	7.85811
3324.84512	7.79481
3322.91655	7.78562
3320.98799	7.84355
3319.05942	7.91185
3317.13086	7.96424
3315.20229	7.97380
3313.27373	7.93985
3311.34517	7.90304
3309.41660	7.91001
3307.48804	7.96248
3305.55947	7.98782
3303.63091	7.97152
3301.70234	7.94587
3299.77378	7.93573
3297.84521	7.94404
3295.91665	8.00705
3293.98809	8.04973
3292.05952	7.96038
3290.13096	7.89666
3288.20239	7.97186
3286.27383	8.06075
3284.34526	8.06140
3282.41670	8.07926
3280.48813	8.09883
3278.55957	8.01544
3276.63101	7.92157
3274.70244	7.91744
3272.77388	7.95841
3270.84531	7.97229
3268.91675	7.94906
3266.98818	7.91989
3265.05962	7.94004
3263.13105	7.98743
3261.20249	8.01907
3259.27393	8.05336
3257.34536	8.08612
3255.41680	8.05153
3253.48823	7.98532
3251.55967	8.00289
3249.63110	8.05793
3247.70254	8.05201
3245.77397	7.98774
3243.84541	7.90541
3241.91685	7.86279
3239.98828	7.89174
3238.05972	7.93000
3236.13115	7.94957
3234.20259	7.99199
3232.27402	7.99946
3230.34546	7.96503
3228.41689	7.94949
3226.48833	7.88374
3224.55977	7.75771
3222.63120	7.69731
3220.70264	7.71948
3218.77407	7.74679
3216.84551	7.76084
3214.91694	7.79013
3212.98838	7.82892
3211.05981	7.84735
3209.13125	7.84946
3207.20269	7.82298
3205.27412	7.74531
3203.34556	7.66609
3201.41699	7.62493
3199.48843	7.61223
3197.55986	7.59501
3195.63130	7.54743
3193.70273	7.48883
3191.77417	7.42574
3189.84561	7.37499
3187.91704	7.35594
3185.98848	7.33340
3184.05991	7.29136
3182.13135	7.23956
3180.20278	7.16950
3178.27422	7.08584
3176.34565	7.01934
3174.41709	6.98673
3172.48853	6.97577
3170.55996	6.95635
3168.63140	6.90303
3166.70283	6.82725
3164.77427	6.76061
3162.84570	6.71271
3160.91714	6.65689
3158.98857	6.57822
3157.06001	6.50882
3155.13145	6.45944
3153.20288	6.40035
3151.27432	6.34058
3149.34575	6.29161
3147.41719	6.23182
3145.48862	6.17363
3143.56006	6.12769
3141.63149	6.06859
3139.70293	5.98832
3137.77437	5.90239
3135.84580	5.82695
3133.91724	5.76600
3131.98867	5.70193
3130.06011	5.62650
3128.13154	5.54934
3126.20298	5.47548
3124.27441	5.40504
3122.34585	5.33538
3120.41729	5.26582
3118.48872	5.19398
3116.56016	5.12091
3114.63159	5.04980
3112.70303	4.98086
3110.77446	4.91344
3108.84590	4.84277
3106.91733	4.77289
3104.98877	4.70740
3103.06021	4.63960
3101.13164	4.57255
3099.20308	4.51315
3097.27451	4.45336
3095.34595	4.38469
3093.41738	4.31425
3091.48882	4.25069
3089.56025	4.19077
3087.63169	4.12856
3085.70312	4.06492
3083.77456	4.00207
3081.84600	3.94122
3079.91743	3.88283
3077.98887	3.82504
3076.06030	3.76670
3074.13174	3.70745
3072.20317	3.64753
3070.27461	3.58905
3068.34604	3.53196
3066.41748	3.47506
3064.48892	3.41959
3062.56035	3.36594
3060.63179	3.31338
3058.70322	3.26056
3056.77466	3.20597
3054.84609	3.15118
3052.91753	3.09868
3050.98896	3.04798
3049.06040	2.99779
3047.13184	2.94882
3045.20327	2.90129
3043.27471	2.85366
3041.34614	2.80462
3039.41758	2.75569
3037.48901	2.70939
3035.56045	2.66415
3033.63188	2.61804
3031.70332	2.57231
3029.77476	2.52759
3027.84619	2.48371
3025.91763	2.44056
3023.98906	2.39792
3022.06050	2.35594
3020.13193	2.31473
3018.20337	2.27435
3016.27480	2.23473
3014.34624	2.19545
3012.41768	2.15637
3010.48911	2.11797
3008.56055	2.08068
3006.63198	2.04439
3004.70342	2.00887
3002.77485	1.97415
3000.84629	1.94011
2998.91772	1.90665
2996.98916	1.87406
2995.06060	1.84215
2993.13203	1.81062
2991.20347	1.77964
2989.27490	1.74929
2987.34634	1.71971
2985.41777	1.69104
2983.48921	1.66311
2981.56064	1.63521
2979.63208	1.60727
2977.70352	1.58043
2975.77495	1.55483
2973.84639	1.52939
2971.91782	1.50393
2969.98926	1.47893
2968.06069	1.45470
2966.13213	1.43126
2964.20356	1.40792
2962.27500	1.38426
2960.34644	1.36028
2958.41787	1.33594
2956.48931	1.31136
2954.56074	1.28677
2952.63218	1.26292
2950.70361	1.24009
2948.77505	1.21745
2946.84648	1.19508
2944.91792	1.17335
2942.98936	1.15213
2941.06079	1.13148
2939.13223	1.11100
2937.20366	1.09053
2935.27510	1.07063
2933.34653	1.05119
2931.41797	1.03166
2929.48940	1.01217
2927.56084	0.99320
2925.63228	0.97460
2923.70371	0.95600
2921.77515	0.93764
2919.84658	0.91986
2917.91802	0.90247
2915.98945	0.88519
2914.06089	0.86858
2912.13232	0.85344
2910.20376	0.83905
2908.27520	0.82433
2906.34663	0.80935
2904.41807	0.79486
2902.48950	0.78106
2900.56094	0.76725
2898.63237	0.75337
2896.70381	0.74042
2894.77524	0.72849
2892.84668	0.71697
2890.91812	0.70554
2888.98955	0.69405
2887.06099	0.68287
2885.13242	0.67245
2883.20386	0.66251
2881.27529	0.65274
2879.34673	0.64309
2877.41816	0.63352
2875.48960	0.62400
2873.56104	0.61417
2871.63247	0.60355
2869.70391	0.59238
2867.77534	0.58115
2865.84678	0.56962
2863.91821	0.55771
2861.98965	0.54618
2860.06108	0.53538
2858.13252	0.52494
2856.20396	0.51464
2854.27539	0.50480
2852.34683	0.49571
2850.41826	0.48717
2848.48970	0.47892
2846.56113	0.47111
2844.63257	0.46407
2842.70400	0.45777
2840.77544	0.45171
2838.84687	0.44578
2836.91831	0.44025
2834.98975	0.43492
2833.06118	0.42947
2831.13262	0.42385
2829.20405	0.41807
2827.27549	0.41217
2825.34692	0.40621
2823.41836	0.40031
2821.48979	0.39459
2819.56123	0.38892
2817.63267	0.38317
2815.70410	0.37746
2813.77554	0.37189
2811.84697	0.36639
2809.91841	0.36095
2807.98984	0.35574
2806.06128	0.35071
2804.13271	0.34561
2802.20415	0.34031
2800.27559	0.33514
2798.34702	0.33048
2796.41846	0.32615
2794.48989	0.32169
2792.56133	0.31699
2790.63276	0.31231
2788.70420	0.30784
2786.77563	0.30354
2784.84707	0.29925
2782.91851	0.29496
2780.98994	0.29090
2779.06138	0.28710
2777.13281	0.28325
2775.20425	0.27934
2773.27568	0.27550
2771.34712	0.27166
2769.41855	0.26787
2767.48999	0.26427
2765.56143	0.26082
2763.63286	0.25746
2761.70430	0.25410
2759.77573	0.25069
2757.84717	0.24738
2755.91860	0.24434
2753.99004	0.24141
2752.06147	0.23848
2750.13291	0.23551
2748.20435	0.23256
2746.27578	0.22974
2744.34722	0.22700
2742.41865	0.22418
2740.49009	0.22139
2738.56152	0.21885
2736.63296	0.21642
2734.70439	0.21396
2732.77583	0.21161
2730.84727	0.20934
2728.91870	0.20705
2726.99014	0.20476
2725.06157	0.20249
2723.13301	0.20023
2721.20444	0.19803
2719.27588	0.19597
2717.34731	0.19406
2715.41875	0.19219
2713.49019	0.19040
2711.56162	0.18881
2709.63306	0.18719
2707.70449	0.18549
2705.77593	0.18385
2703.84736	0.18218
2701.91880	0.18047
2699.99023	0.17888
2698.06167	0.17737
2696.13311	0.17592
2694.20454	0.17455
2692.27598	0.17319
2690.34741	0.17187
2688.41885	0.17058
2686.49028	0.16931
2684.56172	0.16816
2682.63315	0.16720
2680.70459	0.16621
2678.77603	0.16498
2676.84746	0.16369
2674.91890	0.16248
2672.99033	0.16127
2671.06177	0.16011
2669.13320	0.15911
2667.20464	0.15817
2665.27607	0.15727
2663.34751	0.15647
2661.41895	0.15572
2659.49038	0.15496
2657.56182	0.15424
2655.63325	0.15352
2653.70469	0.15280
2651.77612	0.15208
2649.84756	0.15140
2647.91899	0.15080
2645.99043	0.15021
2644.06187	0.14959
2642.13330	0.14898
2640.20474	0.14838
2638.27617	0.14776
2636.34761	0.14722
2634.41904	0.14685
2632.49048	0.14650
2630.56191	0.14607
2628.63335	0.14563
2626.70479	0.14528
2624.77622	0.14502
2622.84766	0.14483
2620.91909	0.14462
2618.99053	0.14430
2617.06196	0.14403
2615.13340	0.14392
2613.20483	0.14380
2611.27627	0.14366
2609.34771	0.14357
2607.41914	0.14347
2605.49058	0.14330
2603.56201	0.14310
2601.63345	0.14299
2599.70488	0.14298
2597.77632	0.14304
2595.84775	0.14317
2593.91919	0.14329
2591.99062	0.14342
2590.06206	0.14353
2588.13350	0.14357
2586.20493	0.14365
2584.27637	0.14392
2582.34780	0.14422
2580.41924	0.14443
2578.49067	0.14474
2576.56211	0.14515
2574.63354	0.14536
2572.70498	0.14545
2570.77642	0.14567
2568.84785	0.14601
2566.91929	0.14640
2564.99072	0.14686
2563.06216	0.14732
2561.13359	0.14779
2559.20503	0.14825
2557.27646	0.14861
2555.34790	0.14904
2553.41934	0.14960
2551.49077	0.15010
2549.56221	0.15064
2547.63364	0.15129
2545.70508	0.15186
2543.77651	0.15231
2541.84795	0.15285
2539.91938	0.15351
2537.99082	0.15418
2536.06226	0.15473
2534.13369	0.15519
2532.20513	0.15580
2530.27656	0.15659
2528.34800	0.15732
2526.41943	0.15793
2524.49087	0.15856
2522.56230	0.15931
2520.63374	0.16013
2518.70518	0.16082
2516.77661	0.16139
2514.84805	0.16207
2512.91948	0.16293
2510.99092	0.16384
2509.06235	0.16469
2507.13379	0.16546
2505.20522	0.16622
2503.27666	0.16691
2501.34810	0.16762
2499.41953	0.16847
2497.49097	0.16933
2495.56240	0.17009
2493.63384	0.17090
2491.70527	0.17185
2489.77671	0.17286
2487.84814	0.17374
2485.91958	0.17449
2483.99102	0.17534
2482.06245	0.17632
2480.13389	0.17726
2478.20532	0.17816
2476.27676	0.17905
2474.34819	0.17989
2472.41963	0.18069
2470.49106	0.18147
2468.56250	0.18228
2466.63394	0.18311
2464.70537	0.18397
2462.77681	0.18485
2460.84824	0.18577
2458.91968	0.18673
2456.99111	0.18771
2455.06255	0.18869
2453.13398	0.18967
2451.20542	0.19068
2449.27686	0.19162
2447.34829	0.19244
2445.41973	0.19326
2443.49116	0.19429
2441.56260	0.19553
2439.63403	0.19674
2437.70547	0.19779
2435.77690	0.19875
2433.84834	0.19969
2431.91978	0.20070
2429.99121	0.20175
2428.06265	0.20276
2426.13408	0.20386
2424.20552	0.20496
2422.27695	0.20595
2420.34839	0.20699
2418.41982	0.20814
2416.49126	0.20932
2414.56270	0.21048
2412.63413	0.21156
2410.70557	0.21255
2408.77700	0.21358
2406.84844	0.21475
2404.91987	0.21599
2402.99131	0.21716
2401.06274	0.21835
2399.13418	0.21960
2397.20562	0.22082
2395.27705	0.22208
2393.34849	0.22343
2391.41992	0.22484
2389.49136	0.22654
2387.56279	0.22903
2385.63423	0.23297
2383.70566	0.23904
2381.77710	0.24757
2379.84854	0.25810
2377.91997	0.26992
2375.99141	0.28330
2374.06284	0.29887
2372.13428	0.31598
2370.20571	0.33367
2368.27715	0.35141
2366.34858	0.36831
2364.42002	0.38298
2362.49146	0.39434
2360.56289	0.40146
2358.63433	0.40280
2356.70576	0.39747
2354.77720	0.38554
2352.84863	0.36858
2350.92007	0.35047
2348.99150	0.33920
2347.06294	0.33990
2345.13437	0.35267
2343.20581	0.36961
2341.27725	0.37866
2339.34868	0.37968
2337.42012	0.37842
2335.49155	0.37704
2333.56299	0.37528
2331.63442	0.37400
2329.70586	0.37280
2327.77729	0.37017
2325.84873	0.36600
2323.92017	0.36125
2321.99160	0.35639
2320.06304	0.35093
2318.13447	0.34477
2316.20591	0.33936
2314.27734	0.33593
2312.34878	0.33379
2310.42021	0.33158
2308.49165	0.32876
2306.56309	0.32547
2304.63452	0.32248
2302.70596	0.32069
2300.77739	0.31991
2298.84883	0.31937
2296.92026	0.31887
2294.99170	0.31846
2293.06313	0.31817
2291.13457	0.31787
2289.20601	0.31752
2287.27744	0.31727
2285.34888	0.31735
2283.42031	0.31812
2281.49175	0.31978
2279.56318	0.32215
2277.63462	0.32469
2275.70605	0.32715
2273.77749	0.32958
2271.84893	0.33190
2269.92036	0.33396
2267.99180	0.33590
2266.06323	0.33781
2264.13467	0.33959
2262.20610	0.34124
2260.27754	0.34291
2258.34897	0.34464
2256.42041	0.34635
2254.49185	0.34805
2252.56328	0.34985
2250.63472	0.35175
2248.70615	0.35364
2246.77759	0.35550
2244.84902	0.35744
2242.92046	0.35957
2240.99189	0.36177
2239.06333	0.36384
2237.13477	0.36583
2235.20620	0.36787
2233.27764	0.37004
2231.34907	0.37232
2229.42051	0.37460
2227.49194	0.37681
2225.56338	0.37902
2223.63481	0.38131
2221.70625	0.38363
2219.77769	0.38585
2217.84912	0.38789
2215.92056	0.38995
2213.99199	0.39211
2212.06343	0.39434
2210.13486	0.39654
2208.20630	0.39860
2206.27773	0.40069
2204.34917	0.40291
2202.42061	0.40505
2200.49204	0.40699
2198.56348	0.40895
2196.63491	0.41092
2194.70635	0.41279
2192.77778	0.41465
2190.84922	0.41657
2188.92065	0.41849
2186.99209	0.42030
2185.06353	0.42196
2183.13496	0.42352
2181.20640	0.42512
2179.27783	0.42687
2177.34927	0.42870
2175.42070	0.43033
2173.49214	0.43178
2171.56357	0.43325
2169.63501	0.43464
2167.70645	0.43577
2165.77788	0.43681
2163.84932	0.43794
2161.92075	0.43908
2159.99219	0.44021
2158.06362	0.44134
2156.13506	0.44237
2154.20649	0.44325
2152.27793	0.44409
2150.34937	0.44494
2148.42080	0.44574
2146.49224	0.44639
2144.56367	0.44678
2142.63511	0.44707
2140.70654	0.44742
2138.77798	0.44772
2136.84941	0.44782
2134.92085	0.44786
2132.99229	0.44792
2131.06372	0.44789
2129.13516	0.44770
2127.20659	0.44738
2125.27803	0.44701
2123.34946	0.44659
2121.42090	0.44606
2119.49233	0.44543
2117.56377	0.44481
2115.63521	0.44423
2113.70664	0.44355
2111.77808	0.44271
2109.84951	0.44182
2107.92095	0.44089
2105.99238	0.43980
2104.06382	0.43861
2102.13525	0.43737
2100.20669	0.43609
2098.27812	0.43465
2096.34956	0.43303
2094.42100	0.43129
2092.49243	0.42961
2090.56387	0.42812
2088.63530	0.42659
2086.70674	0.42483
2084.77817	0.42285
2082.84961	0.42085
2080.92104	0.41894
2078.99248	0.41695
2077.06392	0.41489
2075.13535	0.41279
2073.20679	0.41060
2071.27822	0.40836
2069.34966	0.40616
2067.42109	0.40392
2065.49253	0.40163
2063.56396	0.39917
2061.63540	0.39668
2059.70684	0.39430
2057.77827	0.39188
2055.84971	0.38925
2053.92114	0.38647
2051.99258	0.38374
2050.06401	0.38121
2048.13545	0.37877
2046.20688	0.37620
2044.27832	0.37350
2042.34976	0.37075
2040.42119	0.36801
2038.49263	0.36533
2036.56406	0.36261
2034.63550	0.35976
2032.70693	0.35688
2030.77837	0.35408
2028.84980	0.35138
2026.92124	0.34870
2024.99268	0.34591
2023.06411	0.34311
2021.13555	0.34050
2019.20698	0.33796
2017.27842	0.33528
2015.34985	0.33242
2013.42129	0.32956
2011.49272	0.32681
2009.56416	0.32419
2007.63560	0.32161
2005.70703	0.31896
2003.77847	0.31631
2001.84990	0.31368
1999.92134	0.31101
1997.99277	0.30833
1996.06421	0.30579
1994.13564	0.30341
1992.20708	0.30100
1990.27852	0.29846
1988.34995	0.29593
1986.42139	0.29344
1984.49282	0.29098
1982.56426	0.28859
1980.63569	0.28625
1978.70713	0.28392
1976.77856	0.28166
1974.85000	0.27950
1972.92144	0.27739
1970.99287	0.27540
1969.06431	0.27359
1967.13574	0.27172
1965.20718	0.26958
1963.27861	0.26738
1961.35005	0.26533
1959.42148	0.26342
1957.49292	0.26161
1955.56436	0.25982
1953.63579	0.25802
1951.70723	0.25627
1949.77866	0.25471
1947.85010	0.25331
1945.92153	0.25199
1943.99297	0.25068
1942.06440	0.24928
1940.13584	0.24756
1938.20728	0.24576
1936.27871	0.24425
1934.35015	0.24302
1932.42158	0.24189
1930.49302	0.24076
1928.56445	0.23961
1926.63589	0.23851
1924.70732	0.23773
1922.77876	0.23717
1920.85020	0.23632
1918.92163	0.23530
1916.99307	0.23432
1915.06450	0.23324
1913.13594	0.23227
1911.20737	0.23163
1909.27881	0.23110
1907.35024	0.23040
1905.42168	0.22954
1903.49312	0.22881
1901.56455	0.22821
1899.63599	0.22772
1897.70742	0.22742
1895.77886	0.22722
1893.85029	0.22691
1891.92173	0.22658
1889.99316	0.22658
1888.06460	0.22646
1886.13604	0.22597
1884.20747	0.22557
1882.27891	0.22534
1880.35034	0.22520
1878.42178	0.22511
1876.49321	0.22504
1874.56465	0.22494
1872.63608	0.22513
1870.70752	0.22584
1868.77896	0.22693
1866.85039	0.22727
1864.92183	0.22674
1862.99326	0.22638
1861.06470	0.22642
1859.13613	0.22674
1857.20757	0.22716
1855.27900	0.22766
1853.35044	0.22817
1851.42187	0.22875
1849.49331	0.22944
1847.56475	0.23034
1845.63618	0.23153
1843.70762	0.23277
1841.77905	0.23330
1839.85049	0.23338
1837.92192	0.23399
1835.99336	0.23492
1834.06479	0.23583
1832.13623	0.23697
1830.20767	0.23882
1828.27910	0.24054
1826.35054	0.24146
1824.42197	0.24252
1822.49341	0.24358
1820.56484	0.24458
1818.63628	0.24584
1816.70771	0.24751
1814.77915	0.24923
1812.85059	0.25115
1810.92202	0.25343
1808.99346	0.25554
1807.06489	0.25724
1805.13633	0.25896
1803.20776	0.26134
1801.27920	0.26427
1799.35063	0.26721
1797.42207	0.26959
1795.49351	0.27196
1793.56494	0.27505
1791.63638	0.27898
1789.70781	0.28213
1787.77925	0.28424
1785.85068	0.28712
1783.92212	0.29083
1781.99355	0.29489
1780.06499	0.29919
1778.13643	0.30345
1776.20786	0.30744
1774.27930	0.31196
1772.35073	0.31821
1770.42217	0.32456
1768.49360	0.32934
1766.56504	0.33392
1764.63647	0.33898
1762.70791	0.34496
1760.77935	0.35261
1758.85078	0.35964
1756.92222	0.36656
1754.99365	0.37404
1753.06509	0.38077
1751.13652	0.38902
1749.20796	0.39967
1747.27939	0.41002
1745.35083	0.41890
1743.42227	0.42819
1741.49370	0.43834
1739.56514	0.45040
1737.63657	0.46266
1735.70801	0.47362
1733.77944	0.49035
1731.85088	0.51024
1729.92231	0.52560
1727.99375	0.54086
1726.06519	0.55737
1724.13662	0.57584
1722.20806	0.59599
1720.27949	0.61457
1718.35093	0.63656
1716.42236	0.66927
1714.49380	0.69996
1712.56523	0.72427
1710.63667	0.74778
1708.70811	0.77346
1706.77954	0.80315
1704.85098	0.83870
1702.92241	0.87006
1700.99385	0.90091
1699.06528	0.94767
1697.13672	0.99117
1695.20815	1.03557
1693.27959	1.07872
1691.35103	1.11383
1689.42246	1.15497
1687.49390	1.19859
1685.56533	1.24030
1683.63677	1.30510
1681.70820	1.37341
1679.77964	1.41695
1677.85107	1.45779
1675.92251	1.50474
1673.99395	1.56400
1672.06538	1.61790
1670.13682	1.67080
1668.20825	1.73880
1666.27969	1.79458
1664.35112	1.84339
1662.42256	1.90580
1660.49399	1.97628
1658.56543	2.03155
1656.63687	2.07661
1654.70830	2.11610
1652.77974	2.17236
1650.85117	2.22690
1648.92261	2.24736
1646.99404	2.27080
1645.06548	2.29662
1643.13691	2.31566
1641.20835	2.32489
1639.27979	2.33049
1637.35122	2.33124
1635.42266	2.32520
1633.49409	2.31661
1631.56553	2.30430
1629.63696	2.28644
1627.70840	2.25626
1625.77983	2.22212
1623.85127	2.17902
1621.92271	2.12571
1619.99414	2.07817
1618.06558	2.03148
1616.13701	1.96526
1614.20845	1.89860
1612.27988	1.84842
1610.35132	1.79639
1608.42275	1.73987
1606.49419	1.68380
1604.56562	1.63193
1602.63706	1.58219
1600.70850	1.53414
1598.77993	1.49007
1596.85137	1.44851
1594.92280	1.40823
1592.99424	1.37012
1591.06567	1.33578
1589.13711	1.30358
1587.20854	1.27392
1585.27998	1.24720
1583.35142	1.22260
1581.42285	1.20025
1579.49429	1.18153
1577.56572	1.16541
1575.63716	1.14640
1573.70859	1.12974
1571.78003	1.11931
1569.85146	1.10951
1567.92290	1.09919
1565.99434	1.09187
1564.06577	1.08704
1562.13721	1.08389
1560.20864	1.08348
1558.28008	1.08890
1556.35151	1.09488
1554.42295	1.09716
1552.49438	1.09913
1550.56582	1.10003
1548.63726	1.09854
1546.70869	1.09386
1544.78013	1.08562
1542.85156	1.07392
1540.92300	1.05566
1538.99443	1.02549
1537.06587	1.00277
1535.13730	0.98736
1533.20874	0.96702
1531.28018	0.94523
1529.35161	0.92948
1527.42305	0.91488
1525.49448	0.89972
1523.56592	0.88700
1521.63735	0.87538
1519.70879	0.86329
1517.78022	0.85253
1515.85166	0.83992
1513.92310	0.82651
1511.99453	0.81495
1510.06597	0.80486
1508.13740	0.79513
1506.20884	0.77923
1504.28027	0.76517
1502.35171	0.75768
1500.42314	0.75151
1498.49458	0.74511
1496.56602	0.73726
1494.63745	0.72885
1492.70889	0.72232
1490.78032	0.71716
1488.85176	0.71141
1486.92319	0.70520
1484.99463	0.69995
1483.06606	0.69611
1481.13750	0.69323
1479.20894	0.69115
1477.28037	0.69017
1475.35181	0.69015
1473.42324	0.69050
1471.49468	0.68953
1469.56611	0.68699
1467.63755	0.68439
1465.70898	0.68244
1463.78042	0.68130
1461.85186	0.68086
1459.92329	0.68116
1457.99473	0.68216
1456.06616	0.68210
1454.13760	0.67977
1452.20903	0.67711
1450.28047	0.67469
1448.35190	0.67250
1446.42334	0.66988
1444.49478	0.66699
1442.56621	0.66446
1440.63765	0.66216
1438.70908	0.65983
1436.78052	0.65669
1434.85195	0.65255
1432.92339	0.64927
1430.99482	0.64753
1429.06626	0.64685
1427.13770	0.64665
1425.20913	0.64704
1423.28057	0.64801
1421.35200	0.64881
1419.42344	0.64941
1417.49487	0.64949
1415.56631	0.64849
1413.63774	0.64754
1411.70918	0.64747
1409.78062	0.64827
1407.85205	0.64959
1405.92349	0.65131
1403.99492	0.65300
1402.06636	0.65373
1400.13779	0.65343
1398.20923	0.65217
1396.28066	0.64984
1394.35210	0.64610
1392.42354	0.64131
1390.49497	0.63683
1388.56641	0.63272
1386.63784	0.62786
1384.70928	0.62219
1382.78071	0.61677
1380.85215	0.61192
1378.92358	0.60792
1376.99502	0.60507
1375.06646	0.60319
1373.13789	0.60172
1371.20933	0.60061
1369.28076	0.59992
1367.35220	0.59895
1365.42363	0.59751
1363.49507	0.59610
1361.56650	0.59450
1359.63794	0.59264
1357.70937	0.59109
1355.78081	0.58994
1353.85225	0.58901
1351.92368	0.58821
1349.99512	0.58747
1348.06655	0.58666
1346.13799	0.58570
1344.20942	0.58471
1342.28086	0.58404
1340.35229	0.58386
1338.42373	0.58350
1336.49517	0.58266
1334.56660	0.58199
1332.63804	0.58180
1330.70947	0.58198
1328.78091	0.58249
1326.85234	0.58335
1324.92378	0.58434
1322.99521	0.58512
1321.06665	0.58574
1319.13809	0.58641
1317.20952	0.58686
1315.28096	0.58688
1313.35239	0.58656
1311.42383	0.58591
1309.49526	0.58513
1307.56670	0.58443
1305.63813	0.58379
1303.70957	0.58330
1301.78101	0.58291
1299.85244	0.58220
1297.92388	0.58107
1295.99531	0.57979
1294.06675	0.57849
1292.13818	0.57717
1290.20962	0.57592
1288.28105	0.57473
1286.35249	0.57351
1284.42393	0.57231
1282.49536	0.57103
1280.56680	0.56951
1278.63823	0.56789
1276.70967	0.56642
1274.78110	0.56522
1272.85254	0.56430
1270.92397	0.56359
1268.99541	0.56294
1267.06685	0.56224
1265.13828	0.56136
1263.20972	0.56035
1261.28115	0.55934
1259.35259	0.55846
1257.42402	0.55773
1255.49546	0.55725
1253.56689	0.55724
1251.63833	0.55748
1249.70977	0.55767
1247.78120	0.55775
1245.85264	0.55772
1243.92407	0.55739
1241.99551	0.55660
1240.06694	0.55529
1238.13838	0.55344
1236.20981	0.55131
1234.28125	0.54916
1232.35269	0.54702
1230.42412	0.54490
1228.49556	0.54282
1226.56699	0.54083
1224.63843	0.53902
1222.70986	0.53735
1220.78130	0.53564
1218.85273	0.53398
1216.92417	0.53262
1214.99561	0.53160
1213.06704	0.53076
1211.13848	0.53001
1209.20991	0.52936
1207.28135	0.52878
1205.35278	0.52802
1203.42422	0.52700
1201.49565	0.52589
1199.56709	0.52491
1197.63853	0.52407
1195.70996	0.52325
1193.78140	0.52246
1191.85283	0.52190
1189.92427	0.52164
1187.99570	0.52144
1186.06714	0.52129
1184.13857	0.52138
1182.21001	0.52181
1180.28145	0.52259
1178.35288	0.52369
1176.42432	0.52498
1174.49575	0.52623
1172.56719	0.52712
1170.63862	0.52744
1168.71006	0.52728
1166.78149	0.52705
1164.85293	0.52698
1162.92437	0.52695
1160.99580	0.52665
1159.06724	0.52587
1157.13867	0.52486
1155.21011	0.52387
1153.28154	0.52280
1151.35298	0.52129
1149.42441	0.51920
1147.49585	0.51679
1145.56729	0.51426
1143.63872	0.51160
1141.71016	0.50900
1139.78159	0.50682
1137.85303	0.50530
1135.92446	0.50439
1133.99590	0.50386
1132.06733	0.50351
1130.13877	0.50332
1128.21021	0.50294
1126.28164	0.50211
1124.35308	0.50118
1122.42451	0.50057
1120.49595	0.50036
1118.56738	0.50042
1116.63882	0.50057
1114.71025	0.50065
1112.78169	0.50085
1110.85312	0.50148
1108.92456	0.50240
1106.99600	0.50332
1105.06743	0.50427
1103.13887	0.50541
1101.21030	0.50696
1099.28174	0.50895
1097.35317	0.51111
1095.42461	0.51356
1093.49604	0.51698
1091.56748	0.52161
1089.63892	0.52716
1087.71035	0.53368
1085.78179	0.54112
1083.85322	0.54885
1081.92466	0.55595
1079.99609	0.56125
1078.06753	0.56390
1076.13896	0.56359
1074.21040	0.56064
1072.28184	0.55571
1070.35327	0.54929
1068.42471	0.54215
1066.49614	0.53520
1064.56758	0.52884
1062.63901	0.52321
1060.71045	0.51825
1058.78188	0.51374
1056.85332	0.50971
1054.92476	0.50635
1052.99619	0.50343
1051.06763	0.50083
1049.13906	0.49872
1047.21050	0.49712
1045.28193	0.49593
1043.35337	0.49514
1041.42480	0.49460
1039.49624	0.49399
1037.56768	0.49344
1035.63911	0.49331
1033.71055	0.49330
1031.78198	0.49268
1029.85342	0.49144
1027.92485	0.49025
1025.99629	0.48937
1024.06772	0.48862
1022.13916	0.48817
1020.21060	0.48809
1018.28203	0.48826
1016.35347	0.48874
1014.42490	0.48917
1012.49634	0.48918
1010.56777	0.48916
1008.63921	0.48976
1006.71064	0.49095
1004.78208	0.49249
1002.85352	0.49448
1000.92495	0.49714
998.99639	0.50041
997.06782	0.50419
995.13926	0.50835
993.21069	0.51257
991.28213	0.51624
989.35356	0.51872
987.42500	0.51981
985.49644	0.52006
983.56787	0.52022
981.63931	0.52065
979.71074	0.52157
977.78218	0.52316
975.85361	0.52528
973.92505	0.52774
971.99648	0.53062
970.06792	0.53388
968.13936	0.53752
966.21079	0.54150
964.28223	0.54584
962.35366	0.55068
960.42510	0.55584
958.49653	0.56120
956.56797	0.56704
954.63940	0.57338
952.71084	0.57980
950.78228	0.58593
948.85371	0.59198
946.92515	0.59827
944.99658	0.60453
943.06802	0.61051
941.13945	0.61622
939.21089	0.62179
937.28232	0.62738
935.35376	0.63295
933.42520	0.63829
931.49663	0.64365
929.56807	0.64956
927.63950	0.65593
925.71094	0.66251
923.78237	0.66902
921.85381	0.67515
919.92524	0.68140
917.99668	0.68805
916.06812	0.69467
914.13955	0.70147
912.21099	0.70922
910.28242	0.71760
908.35386	0.72588
906.42529	0.73421
904.49673	0.74311
902.56816	0.75280
900.63960	0.76263
898.71104	0.77169
896.78247	0.78080
894.85391	0.79064
892.92534	0.80049
890.99678	0.81023
889.06821	0.82021
887.13965	0.83110
885.21108	0.84283
883.28252	0.85481
881.35396	0.86682
879.42539	0.87762
877.49683	0.88778
875.56826	0.89933
873.63970	0.91082
871.71113	0.92047
869.78257	0.93052
867.85400	0.94222
865.92544	0.95423
863.99687	0.96757
862.06831	0.98237
860.13975	0.99496
858.21118	1.00511
856.28262	1.01497
854.35405	1.02515
852.42549	1.03648
850.49692	1.04680
848.56836	1.05456
846.63979	1.06426
844.71123	1.07725
842.78267	1.08921
840.85410	1.09903
838.92554	1.10916
836.99697	1.12156
835.06841	1.13510
833.13984	1.14568
831.21128	1.15346
829.28271	1.16497
827.35415	1.18090
825.42559	1.19283
823.49702	1.19810
821.56846	1.20152
819.63989	1.20640
817.71133	1.21517
815.78276	1.22941
813.85420	1.24215
811.92563	1.24097
809.99707	1.22835
808.06851	1.22452
806.13994	1.24625
804.21138	1.27902
802.28281	1.28828
800.35425	1.28231
798.42568	1.29526
796.49712	1.32300
794.56855	1.33167
792.63999	1.30342
790.71143	1.25865
788.78286	1.22646
786.85430	1.21600
784.92573	1.21294
782.99717	1.20427
781.06860	1.20325
779.14004	1.19937
777.21147	1.18521
775.28291	1.17580
773.35435	1.15650
771.42578	1.13867
769.49722	1.13941
767.56865	1.12185
765.64009	1.06066
763.71152	1.00989
761.78296	1.01693
759.85439	1.04941
757.92583	1.03667
755.99727	0.98244
754.06870	0.94078
752.14014	0.92078
750.21157	0.87039
748.28301	0.79980
746.35444	0.77085
744.42588	0.78560
742.49731	0.80926
740.56875	0.77186
738.64019	0.64997
736.71162	0.49942
734.78306	0.34830
732.85449	0.19548
730.92593	0.00513
728.99736	-0.42523
727.06880	4.36241
725.14023	4.35084
723.21167	4.33927
721.28311	4.32770
719.35454	-0.42529
717.42598	-0.04159
715.49741	0.10834
713.56885	0.24446
711.64028	0.33161
709.71172	0.32599
707.78315	0.35144
705.85459	0.44797
703.92603	0.51172
701.99746	0.47943
700.06890	0.40311
698.14033	0.37124
696.21177	0.38601
694.28320	0.38886
692.35464	0.38878
690.42607	0.42277
688.49751	0.45205
686.56895	0.44656
684.64038	0.43450
682.71182	0.41948
680.78325	0.39068
678.85469	0.38136
676.92612	0.40308
674.99756	0.41067
673.06899	0.37442
671.14043	0.30307
669.21187	0.24877
667.28330	0.25156
665.35474	0.29957
663.42617	0.36886
661.49761	0.41820
659.56904	0.42548
657.64048	0.40705
655.71191	0.38321
653.78335	0.35995
651.85479	0.33032
649.92622	0.32751
647.99766	0.35956
646.06909	0.36658
644.14053	0.34847
642.21196	0.35720
640.28340	0.39250
638.35483	0.43760
636.42627	0.44796
634.49771	0.40864
632.56914	0.38339
630.64058	0.40508
628.71201	0.43530
626.78345	0.42110
624.85488	0.37896
622.92632	0.34148
620.99775	0.33977
619.06919	0.39786
617.14062	0.42960
615.21206	0.35305
613.28350	0.28585
611.35493	0.27576
609.42637	0.28694
607.49780	0.30288
605.56924	0.32952
603.64067	0.34537
601.71211	0.35336
599.78354	0.39193
597.85498	0.44344
595.92642	0.43286
593.99785	0.35307
592.06929	0.29457
590.14072	0.29987
588.21216	0.35283
586.28359	0.41440
584.35503	0.42204
582.42646	0.35807
580.49790	0.29687
578.56934	0.28323
576.64077	0.30430
574.71221	0.31161
572.78364	0.30019
570.85508	0.31386
568.92651	0.35419
566.99795	0.37937
565.06938	0.38631
563.14082	0.39687
561.21226	0.39892
559.28369	0.39404
557.35513	0.38565
555.42656	0.33214
553.49800	0.26680
551.56943	0.24728
549.64087	0.27033
547.71230	0.29348
545.78374	0.29825
543.85518	0.32668
541.92661	0.39729
539.99805	0.44135
538.06948	0.41061
536.14092	0.36934
534.21235	0.35442
532.28379	0.35094
530.35522	0.33470
528.42666	0.31660
526.49810	0.31871
524.56953	0.33521
522.64097	0.33582
520.71240	0.31709
518.78384	0.30972
516.85527	0.32044
514.92671	0.32975
512.99814	0.33122
511.06958	0.34411
509.14102	0.35791
507.21245	0.34039
505.28389	0.31141
503.35532	0.30062
501.42676	0.30659
499.49819	0.31518
