3997.91411	0.06547
3995.98555	0.06615
3994.05698	0.06652
3992.12842	0.06654
3990.19985	0.06667
3988.27129	0.06682
3986.34272	0.06677
3984.41416	0.06691
3982.48560	0.06724
3980.55703	0.06743
3978.62847	0.06762
3976.69990	0.06801
3974.77134	0.06857
3972.84277	0.06896
3970.91421	0.06879
3968.98564	0.06861
3967.05708	0.06895
3965.12852	0.06936
3963.19995	0.06926
3961.27139	0.06888
3959.34282	0.06902
3957.41426	0.06952
3955.48569	0.06949
3953.55713	0.06900
3951.62856	0.06892
3949.70000	0.06936
3947.77144	0.06991
3945.84287	0.07032
3943.91431	0.07056
3941.98574	0.07062
3940.05718	0.07028
3938.12861	0.06991
3936.20005	0.06978
3934.27148	0.06977
3932.34292	0.06983
3930.41436	0.06980
3928.48579	0.06973
3926.55723	0.06986
3924.62866	0.07019
3922.70010	0.07032
3920.77153	0.07020
3918.84297	0.07029
3916.91440	0.07039
3914.98584	0.06967
3913.05728	0.06854
3911.12871	0.06817
3909.20015	0.06845
3907.27158	0.06866
3905.34302	0.06894
3903.41445	0.06948
3901.48589	0.06985
3899.55732	0.06998
3897.62876	0.06960
3895.70020	0.06900
3893.77163	0.06901
3891.84307	0.06936
3889.91450	0.06930
3887.98594	0.06907
3886.05737	0.06947
3884.12881	0.07007
3882.20024	0.07010
3880.27168	0.07014
3878.34312	0.07004
3876.41455	0.06961
3874.48599	0.06978
3872.55742	0.07061
3870.62886	0.07155
3868.70029	0.07243
3866.77173	0.07277
3864.84316	0.07289
3862.91460	0.07306
3860.98604	0.07286
3859.05747	0.07264
3857.12891	0.07288
3855.20034	0.07379
3853.27178	0.07541
3851.34321	0.07609
3849.41465	0.07527
3847.48608	0.07498
3845.55752	0.07531
3843.62896	0.07563
3841.70039	0.07597
3839.77183	0.07666
3837.84326	0.07750
3835.91470	0.07843
3833.98613	0.07964
3832.05757	0.08048
3830.12900	0.08055
3828.20044	0.08049
3826.27187	0.08105
3824.34331	0.08225
3822.41475	0.08404
3820.48618	0.08642
3818.55762	0.08729
3816.62905	0.08703
3814.70049	0.08765
3812.77192	0.08811
3810.84336	0.08803
3808.91479	0.08843
3806.98623	0.08974
3805.05767	0.09138
3803.12910	0.09262
3801.20054	0.09410
3799.27197	0.09563
3797.34341	0.09648
3795.41484	0.09749
3793.48628	0.09874
3791.55771	0.09985
3789.62915	0.10080
3787.70059	0.10183
3785.77202	0.10326
3783.84346	0.10483
3781.91489	0.10600
3779.98633	0.10727
3778.05776	0.10913
3776.12920	0.11065
3774.20063	0.11177
3772.27207	0.11334
3770.34351	0.11562
3768.41494	0.11801
3766.48638	0.11987
3764.55781	0.12181
3762.62925	0.12386
3760.70068	0.12582
3758.77212	0.12806
3756.84355	0.13040
3754.91499	0.13240
3752.98643	0.13455
3751.05786	0.13807
3749.12930	0.14223
3747.20073	0.14433
3745.27217	0.14612
3743.34360	0.15023
3741.41504	0.15456
3739.48647	0.15730
3737.55791	0.16029
3735.62935	0.16501
3733.70078	0.17074
3731.77222	0.17545
3729.84365	0.17957
3727.91509	0.18371
3725.98652	0.18893
3724.05796	0.19569
3722.12939	0.20288
3720.20083	0.21004
3718.27227	0.21720
3716.34370	0.22439
3714.41514	0.23155
3712.48657	0.24016
3710.55801	0.25267
3708.62944	0.26673
3706.70088	0.27867
3704.77231	0.28980
3702.84375	0.30267
3700.91519	0.31975
3698.98662	0.33861
3697.05806	0.35607
3695.12949	0.37421
3693.20093	0.39369
3691.27236	0.41517
3689.34380	0.44287
3687.41523	0.47704
3685.48667	0.50735
3683.55811	0.53337
3681.62954	0.56131
3679.70098	0.59294
3677.77241	0.62591
3675.84385	0.66453
3673.91528	0.71727
3671.98672	0.76129
3670.05815	0.80017
3668.12959	0.85261
3666.20103	0.90045
3664.27246	0.94078
3662.34390	0.98404
3660.41533	1.03058
3658.48677	1.07655
3656.55820	1.12567
3654.62964	1.18049
3652.70107	1.22633
3650.77251	1.26563
3648.84395	1.32022
3646.91538	1.38934
3644.98682	1.44081
3643.05825	1.47983
3641.12969	1.51956
3639.20112	1.56355
3637.27256	1.60817
3635.34399	1.65148
3633.41543	1.69426
3631.48687	1.73386
3629.55830	1.77367
3627.62974	1.82704
3625.70117	1.87860
3623.77261	1.91330
3621.84404	1.94575
3619.91548	1.98303
3617.98691	2.02822
3616.05835	2.07126
3614.12979	2.10732
3612.20122	2.14677
3610.27266	2.18694
3608.34409	2.22681
3606.41553	2.26978
3604.48696	2.30954
3602.55840	2.34416
3600.62983	2.38138
3598.70127	2.42232
3596.77271	2.46275
3594.84414	2.50364
3592.91558	2.54552
3590.98701	2.58460
3589.05845	2.62088
3587.12988	2.66461
3585.20132	2.71342
3583.27275	2.75510
3581.34419	2.79342
3579.41562	2.83348
3577.48706	2.87541
3575.55850	2.91821
3573.62993	2.96181
3571.70137	3.00373
3569.77280	3.04384
3567.84424	3.08742
3565.91567	3.14093
3563.98711	3.19177
3562.05854	3.23312
3560.12998	3.27474
3558.20142	3.31852
3556.27285	3.36262
3554.34429	3.40650
3552.41572	3.45269
3550.48716	3.49924
3548.55859	3.54286
3546.63003	3.58631
3544.70146	3.63469
3542.77290	3.68437
3540.84434	3.72973
3538.91577	3.77491
3536.98721	3.82299
3535.05864	3.87336
3533.13008	3.92251
3531.20151	3.96999
3529.27295	4.01683
3527.34438	4.06408
3525.41582	4.11215
3523.48726	4.16164
3521.55869	4.21426
3519.63013	4.26626
3517.70156	4.31486
3515.77300	4.36204
3513.84443	4.40958
3511.91587	4.45428
3509.98730	4.49704
3508.05874	4.54300
3506.13018	4.59278
3504.20161	4.64604
3502.27305	4.70045
3500.34448	4.75107
3498.41592	4.79975
3496.48735	4.85190
3494.55879	4.90227
3492.63022	4.94739
3490.70166	4.99470
3488.77310	5.04587
3486.84453	5.09552
3484.91597	5.14239
3482.98740	5.18925
3481.05884	5.23350
3479.13027	5.27425
3477.20171	5.32240
3475.27314	5.37958
3473.34458	5.43245
3471.41602	5.47332
3469.48745	5.51407
3467.55889	5.56708
3465.63032	5.62275
3463.70176	5.67551
3461.77319	5.73125
3459.84463	5.79005
3457.91606	5.84860
3455.98750	5.89980
3454.05894	5.93814
3452.13037	5.97592
3450.20181	6.02027
3448.27324	6.06410
3446.34468	6.11651
3444.41611	6.18229
3442.48755	6.24718
3440.55898	6.29515
3438.63042	6.33905
3436.70186	6.39988
3434.77329	6.46125
3432.84473	6.49280
3430.91616	6.51290
3428.98760	6.56559
3427.05903	6.63099
3425.13047	6.68783
3423.20190	6.74893
3421.27334	6.81479
3419.34478	6.87705
3417.41621	6.92724
3415.48765	6.96678
3413.55908	7.01484
3411.63052	7.05628
3409.70195	7.05209
3407.77339	7.06391
3405.84482	7.13072
3403.91626	7.21569
3401.98770	7.27802
3400.05913	7.28261
3398.13057	7.26925
3396.20200	7.31731
3394.27344	7.41785
3392.34487	7.49021
3390.41631	7.56559
3388.48774	7.68058
3386.55918	7.73997
3384.63062	7.70013
3382.70205	7.67723
3380.77349	7.71584
3378.84492	7.75686
3376.91636	7.79233
3374.98779	7.83947
3373.05923	7.91331
3371.13066	7.93196
3369.20210	7.86381
3367.27354	7.82039
3365.34497	7.84938
3363.41641	7.88529
3361.48784	7.90952
3359.55928	8.00169
3357.63071	8.11431
3355.70215	8.14414
3353.77358	8.10951
3351.84502	8.07217
3349.91646	8.05042
3347.98789	8.04823
3346.05933	8.04007
3344.13076	8.03911
3342.20220	8.09676
3340.27363	8.19907
3338.34507	8.30336
3336.41650	8.33927
3334.48794	8.32381
3332.55937	8.28618
3330.63081	8.23320
3328.70225	8.20923
3326.77368	8.26612
3324.84512	8.35984
3322.91655	8.31550
3320.98799	8.17444
3319.05942	8.06188
3317.13086	8.02100
3315.20229	8.05954
3313.27373	8.11482
3311.34517	8.15794
3309.41660	8.23078
3307.48804	8.28394
3305.55947	8.27910
3303.63091	8.31121
3301.70234	8.35104
3299.77378	8.36551
3297.84521	8.38910
3295.91665	8.39639
3293.98809	8.41212
3292.05952	8.41896
3290.13096	8.36777
3288.20239	8.38258
3286.27383	8.46942
3284.34526	8.48144
3282.41670	8.47456
3280.48813	8.49779
3278.55957	8.54774
3276.63101	8.59549
3274.70244	8.54115
3272.77388	8.43704
3270.84531	8.43348
3268.91675	8.49897
3266.98818	8.44877
3265.05962	8.32910
3263.13105	8.31450
3261.20249	8.40947
3259.27393	8.49443
3257.34536	8.57452
3255.41680	8.66372
3253.48823	8.63413
3251.55967	8.51024
3249.63110	8.43656
3247.70254	8.44331
3245.77397	8.43008
3243.84541	8.49206
3241.91685	8.71966
3239.98828	8.81870
3238.05972	8.74756
3236.13115	8.73885
3234.20259	8.72220
3232.27402	8.65340
3230.34546	8.54247
3228.41689	8.35912
3226.48833	8.23167
3224.55977	8.25067
3222.63120	8.32854
3220.70264	8.37769
3218.77407	8.42044
3216.84551	8.45004
3214.91694	8.45488
3212.98838	8.40667
3211.05981	8.29516
3209.13125	8.18915
3207.20269	8.08671
3205.27412	8.04944
3203.34556	8.08701
3201.41699	8.03956
3199.48843	7.96635
3197.55986	7.94577
3195.63130	7.85475
3193.70273	7.75719
3191.77417	7.76957
3189.84561	7.82728
3187.91704	7.79788
3185.98848	7.68714
3184.05991	7.62192
3182.13135	7.57765
3180.20278	7.48157
3178.27422	7.37656
3176.34565	7.29045
3174.41709	7.22144
3172.48853	7.17320
3170.55996	7.13204
3168.63140	7.07699
3166.70283	7.01967
3164.77427	6.98569
3162.84570	6.95349
3160.91714	6.88183
3158.98857	6.78323
3157.06001	6.68715
3155.13145	6.60139
3153.20288	6.52700
3151.27432	6.45809
3149.34575	6.39743
3147.41719	6.34609
3145.48862	6.27745
3143.56006	6.18112
3141.63149	6.08845
3139.70293	6.01400
3137.77437	5.94768
3135.84580	5.88563
3133.91724	5.81880
3131.98867	5.74027
3130.06011	5.66026
3128.13154	5.58406
3126.20298	5.51093
3124.27441	5.44352
3122.34585	5.37429
3120.41729	5.29291
3118.48872	5.21007
3116.56016	5.14174
3114.63159	5.08004
3112.70303	5.01112
3110.77446	4.93748
3108.84590	4.86628
3106.91733	4.79908
3104.98877	4.73364
3103.06021	4.66704
3101.13164	4.59872
3099.20308	4.53089
3097.27451	4.46279
3095.34595	4.39424
3093.41738	4.32812
3091.48882	4.26384
3089.56025	4.19892
3087.63169	4.13382
3085.70312	4.07088
3083.77456	4.01020
3081.84600	3.94912
3079.91743	3.88510
3077.98887	3.82092
3076.06030	3.76073
3074.13174	3.70339
3072.20317	3.64607
3070.27461	3.58824
3068.34604	3.53141
3066.41748	3.47495
3064.48892	3.41756
3062.56035	3.36110
3060.63179	3.30619
3058.70322	3.25149
3056.77466	3.19727
3054.84609	3.14500
3052.91753	3.09485
3050.98896	3.04504
3049.06040	2.99420
3047.13184	2.94241
3045.20327	2.89147
3043.27471	2.84322
3041.34614	2.79588
3039.41758	2.74772
3037.48901	2.70048
3035.56045	2.65472
3033.63188	2.60930
3031.70332	2.56386
3029.77476	2.51931
3027.84619	2.47657
3025.91763	2.43454
3023.98906	2.39227
3022.06050	2.35027
3020.13193	2.30855
3018.20337	2.26708
3016.27480	2.22670
3014.34624	2.18799
3012.41768	2.15013
3010.48911	2.11238
3008.56055	2.07504
3006.63198	2.03868
3004.70342	2.00325
3002.77485	1.96790
3000.84629	1.93264
2998.91772	1.89855
2996.98916	1.86591
2995.06060	1.83410
2993.13203	1.80270
2991.20347	1.77138
2989.27490	1.74042
2987.34634	1.71043
2985.41777	1.68121
2983.48921	1.65243
2981.56064	1.62443
2979.63208	1.59741
2977.70352	1.57064
2975.77495	1.54354
2973.84639	1.51657
2971.91782	1.49041
2969.98926	1.46518
2968.06069	1.44029
2966.13213	1.41551
2964.20356	1.39097
2962.27500	1.36664
2960.34644	1.34260
2958.41787	1.31905
2956.48931	1.29606
2954.56074	1.27323
2952.63218	1.25000
2950.70361	1.22663
2948.77505	1.20377
2946.84648	1.18134
2944.91792	1.15920
2942.98936	1.13778
2941.06079	1.11729
2939.13223	1.09695
2937.20366	1.07640
2935.27510	1.05629
2933.34653	1.03668
2931.41797	1.01709
2929.48940	0.99740
2927.56084	0.97783
2925.63228	0.95911
2923.70371	0.94183
2921.77515	0.92521
2919.84658	0.90843
2917.91802	0.89148
2915.98945	0.87495
2914.06089	0.85935
2912.13232	0.84454
2910.20376	0.83022
2908.27520	0.81602
2906.34663	0.80186
2904.41807	0.78779
2902.48950	0.77380
2900.56094	0.76039
2898.63237	0.74767
2896.70381	0.73500
2894.77524	0.72224
2892.84668	0.70997
2890.91812	0.69819
2888.98955	0.68659
2887.06099	0.67551
2885.13242	0.66527
2883.20386	0.65543
2881.27529	0.64538
2879.34673	0.63523
2877.41816	0.62538
2875.48960	0.61583
2873.56104	0.60602
2871.63247	0.59552
2869.70391	0.58458
2867.77534	0.57348
2865.84678	0.56221
2863.91821	0.55106
2861.98965	0.54037
2860.06108	0.52993
2858.13252	0.51955
2856.20396	0.50952
2854.27539	0.50021
2852.34683	0.49186
2850.41826	0.48424
2848.48970	0.47690
2846.56113	0.46967
2844.63257	0.46263
2842.70400	0.45601
2840.77544	0.44986
2838.84687	0.44403
2836.91831	0.43838
2834.98975	0.43270
2833.06118	0.42680
2831.13262	0.42079
2829.20405	0.41483
2827.27549	0.40898
2825.34692	0.40325
2823.41836	0.39750
2821.48979	0.39171
2819.56123	0.38612
2817.63267	0.38058
2815.70410	0.37493
2813.77554	0.36928
2811.84697	0.36389
2809.91841	0.35882
2807.98984	0.35382
2806.06128	0.34880
2804.13271	0.34387
2802.20415	0.33886
2800.27559	0.33372
2798.34702	0.32881
2796.41846	0.32429
2794.48989	0.31986
2792.56133	0.31520
2790.63276	0.31057
2788.70420	0.30638
2786.77563	0.30241
2784.84707	0.29829
2782.91851	0.29407
2780.98994	0.29000
2779.06138	0.28619
2777.13281	0.28251
2775.20425	0.27875
2773.27568	0.27505
2771.34712	0.27158
2769.41855	0.26811
2767.48999	0.26462
2765.56143	0.26142
2763.63286	0.25831
2761.70430	0.25493
2759.77573	0.25144
2757.84717	0.24819
2755.91860	0.24518
2753.99004	0.24217
2752.06147	0.23925
2750.13291	0.23659
2748.20435	0.23396
2746.27578	0.23121
2744.34722	0.22843
2742.41865	0.22566
2740.49009	0.22307
2738.56152	0.22062
2736.63296	0.21820
2734.70439	0.21578
2732.77583	0.21335
2730.84727	0.21100
2728.91870	0.20873
2726.99014	0.20647
2725.06157	0.20431
2723.13301	0.20236
2721.20444	0.20052
2719.27588	0.19860
2717.34731	0.19672
2715.41875	0.19493
2713.49019	0.19312
2711.56162	0.19132
2709.63306	0.18960
2707.70449	0.18792
2705.77593	0.18623
2703.84736	0.18450
2701.91880	0.18284
2699.99023	0.18136
2698.06167	0.18003
2696.13311	0.17871
2694.20454	0.17731
2692.27598	0.17598
2690.34741	0.17471
2688.41885	0.17340
2686.49028	0.17221
2684.56172	0.17125
2682.63315	0.17030
2680.70459	0.16918
2678.77603	0.16807
2676.84746	0.16702
2674.91890	0.16590
2672.99033	0.16476
2671.06177	0.16383
2669.13320	0.16304
2667.20464	0.16203
2665.27607	0.16088
2663.34751	0.15997
2661.41895	0.15920
2659.49038	0.15830
2657.56182	0.15746
2655.63325	0.15685
2653.70469	0.15633
2651.77612	0.15570
2649.84756	0.15503
2647.91899	0.15441
2645.99043	0.15389
2644.06187	0.15349
2642.13330	0.15302
2640.20474	0.15247
2638.27617	0.15196
2636.34761	0.15155
2634.41904	0.15119
2632.49048	0.15080
2630.56191	0.15034
2628.63335	0.14999
2626.70479	0.14987
2624.77622	0.14970
2622.84766	0.14939
2620.91909	0.14916
2618.99053	0.14894
2617.06196	0.14858
2615.13340	0.14813
2613.20483	0.14778
2611.27627	0.14773
2609.34771	0.14784
2607.41914	0.14782
2605.49058	0.14773
2603.56201	0.14779
2601.63345	0.14799
2599.70488	0.14810
2597.77632	0.14805
2595.84775	0.14799
2593.91919	0.14798
2591.99062	0.14801
2590.06206	0.14815
2588.13350	0.14843
2586.20493	0.14865
2584.27637	0.14879
2582.34780	0.14902
2580.41924	0.14934
2578.49067	0.14967
2576.56211	0.15001
2574.63354	0.15029
2572.70498	0.15060
2570.77642	0.15097
2568.84785	0.15124
2566.91929	0.15141
2564.99072	0.15169
2563.06216	0.15219
2561.13359	0.15279
2559.20503	0.15327
2557.27646	0.15366
2555.34790	0.15415
2553.41934	0.15472
2551.49077	0.15530
2549.56221	0.15594
2547.63364	0.15657
2545.70508	0.15713
2543.77651	0.15760
2541.84795	0.15799
2539.91938	0.15845
2537.99082	0.15903
2536.06226	0.15968
2534.13369	0.16042
2532.20513	0.16118
2530.27656	0.16195
2528.34800	0.16285
2526.41943	0.16373
2524.49087	0.16440
2522.56230	0.16503
2520.63374	0.16579
2518.70518	0.16657
2516.77661	0.16731
2514.84805	0.16802
2512.91948	0.16871
2510.99092	0.16939
2509.06235	0.17007
2507.13379	0.17085
2505.20522	0.17183
2503.27666	0.17283
2501.34810	0.17368
2499.41953	0.17448
2497.49097	0.17530
2495.56240	0.17614
2493.63384	0.17704
2491.70527	0.17795
2489.77671	0.17869
2487.84814	0.17938
2485.91958	0.18028
2483.99102	0.18127
2482.06245	0.18224
2480.13389	0.18320
2478.20532	0.18398
2476.27676	0.18464
2474.34819	0.18544
2472.41963	0.18643
2470.49106	0.18736
2468.56250	0.18819
2466.63394	0.18911
2464.70537	0.19011
2462.77681	0.19096
2460.84824	0.19177
2458.91968	0.19277
2456.99111	0.19389
2455.06255	0.19489
2453.13398	0.19574
2451.20542	0.19663
2449.27686	0.19770
2447.34829	0.19881
2445.41973	0.19981
2443.49116	0.20075
2441.56260	0.20168
2439.63403	0.20267
2437.70547	0.20380
2435.77690	0.20496
2433.84834	0.20596
2431.91978	0.20690
2429.99121	0.20792
2428.06265	0.20894
2426.13408	0.21001
2424.20552	0.21117
2422.27695	0.21230
2420.34839	0.21328
2418.41982	0.21417
2416.49126	0.21516
2414.56270	0.21641
2412.63413	0.21776
2410.70557	0.21900
2408.77700	0.22013
2406.84844	0.22122
2404.91987	0.22234
2402.99131	0.22354
2401.06274	0.22477
2399.13418	0.22594
2397.20562	0.22709
2395.27705	0.22830
2393.34849	0.22961
2391.41992	0.23099
2389.49136	0.23243
2387.56279	0.23389
2385.63423	0.23532
2383.70566	0.23689
2381.77710	0.23866
2379.84854	0.24052
2377.91997	0.24235
2375.99141	0.24433
2374.06284	0.24676
2372.13428	0.24942
2370.20571	0.25198
2368.27715	0.25431
2366.34858	0.25658
2364.42002	0.25945
2362.49146	0.26259
2360.56289	0.26488
2358.63433	0.26617
2356.70576	0.26688
2354.77720	0.26745
2352.84863	0.26826
2350.92007	0.26873
2348.99150	0.26880
2347.06294	0.26945
2345.13437	0.27151
2343.20581	0.27434
2341.27725	0.27657
2339.34868	0.27823
2337.42012	0.27937
2335.49155	0.28038
2333.56299	0.28181
2331.63442	0.28362
2329.70586	0.28533
2327.77729	0.28688
2325.84873	0.28828
2323.92017	0.28950
2321.99160	0.29061
2320.06304	0.29157
2318.13447	0.29249
2316.20591	0.29361
2314.27734	0.29504
2312.34878	0.29667
2310.42021	0.29827
2308.49165	0.29968
2306.56309	0.30090
2304.63452	0.30209
2302.70596	0.30359
2300.77739	0.30541
2298.84883	0.30716
2296.92026	0.30876
2294.99170	0.31037
2293.06313	0.31215
2291.13457	0.31401
2289.20601	0.31580
2287.27744	0.31766
2285.34888	0.31969
2283.42031	0.32162
2281.49175	0.32334
2279.56318	0.32516
2277.63462	0.32719
2275.70605	0.32925
2273.77749	0.33124
2271.84893	0.33326
2269.92036	0.33541
2267.99180	0.33758
2266.06323	0.33964
2264.13467	0.34170
2262.20610	0.34378
2260.27754	0.34580
2258.34897	0.34788
2256.42041	0.35000
2254.49185	0.35205
2252.56328	0.35405
2250.63472	0.35618
2248.70615	0.35843
2246.77759	0.36066
2244.84902	0.36283
2242.92046	0.36503
2240.99189	0.36726
2239.06333	0.36947
2237.13477	0.37169
2235.20620	0.37395
2233.27764	0.37619
2231.34907	0.37836
2229.42051	0.38046
2227.49194	0.38262
2225.56338	0.38487
2223.63481	0.38716
2221.70625	0.38940
2219.77769	0.39157
2217.84912	0.39376
2215.92056	0.39606
2213.99199	0.39831
2212.06343	0.40041
2210.13486	0.40246
2208.20630	0.40454
2206.27773	0.40660
2204.34917	0.40860
2202.42061	0.41059
2200.49204	0.41260
2198.56348	0.41459
2196.63491	0.41662
2194.70635	0.41863
2192.77778	0.42052
2190.84922	0.42242
2188.92065	0.42439
2186.99209	0.42627
2185.06353	0.42804
2183.13496	0.42985
2181.20640	0.43165
2179.27783	0.43332
2177.34927	0.43491
2175.42070	0.43651
2173.49214	0.43796
2171.56357	0.43920
2169.63501	0.44045
2167.70645	0.44180
2165.77788	0.44308
2163.84932	0.44430
2161.92075	0.44552
2159.99219	0.44668
2158.06362	0.44776
2156.13506	0.44867
2154.20649	0.44943
2152.27793	0.45025
2150.34937	0.45118
2148.42080	0.45199
2146.49224	0.45246
2144.56367	0.45262
2142.63511	0.45280
2140.70654	0.45325
2138.77798	0.45372
2136.84941	0.45393
2134.92085	0.45394
2132.99229	0.45398
2131.06372	0.45411
2129.13516	0.45410
2127.20659	0.45380
2125.27803	0.45336
2123.34946	0.45291
2121.42090	0.45240
2119.49233	0.45184
2117.56377	0.45129
2115.63521	0.45069
2113.70664	0.44994
2111.77808	0.44906
2109.84951	0.44812
2107.92095	0.44712
2105.99238	0.44605
2104.06382	0.44487
2102.13525	0.44352
2100.20669	0.44214
2098.27812	0.44080
2096.34956	0.43936
2094.42100	0.43771
2092.49243	0.43611
2090.56387	0.43461
2088.63530	0.43292
2086.70674	0.43108
2084.77817	0.42924
2082.84961	0.42738
2080.92104	0.42545
2078.99248	0.42346
2077.06392	0.42141
2075.13535	0.41929
2073.20679	0.41710
2071.27822	0.41487
2069.34966	0.41261
2067.42109	0.41031
2065.49253	0.40795
2063.56396	0.40552
2061.63540	0.40314
2059.70684	0.40084
2057.77827	0.39847
2055.84971	0.39590
2053.92114	0.39319
2051.99258	0.39052
2050.06401	0.38792
2048.13545	0.38530
2046.20688	0.38271
2044.27832	0.38022
2042.34976	0.37765
2040.42119	0.37493
2038.49263	0.37218
2036.56406	0.36940
2034.63550	0.36657
2032.70693	0.36379
2030.77837	0.36110
2028.84980	0.35837
2026.92124	0.35565
2024.99268	0.35292
2023.06411	0.35014
2021.13555	0.34741
2019.20698	0.34472
2017.27842	0.34197
2015.34985	0.33916
2013.42129	0.33642
2011.49272	0.33373
2009.56416	0.33102
2007.63560	0.32825
2005.70703	0.32543
2003.77847	0.32271
2001.84990	0.32015
1999.92134	0.31762
1997.99277	0.31504
1996.06421	0.31243
1994.13564	0.30987
1992.20708	0.30738
1990.27852	0.30492
1988.34995	0.30246
1986.42139	0.29998
1984.49282	0.29758
1982.56426	0.29529
1980.63569	0.29300
1978.70713	0.29072
1976.77856	0.28849
1974.85000	0.28627
1972.92144	0.28402
1970.99287	0.28185
1969.06431	0.27986
1967.13574	0.27790
1965.20718	0.27583
1963.27861	0.27381
1961.35005	0.27190
1959.42148	0.27005
1957.49292	0.26825
1955.56436	0.26643
1953.63579	0.26459
1951.70723	0.26283
1949.77866	0.26119
1947.85010	0.25966
1945.92153	0.25816
1943.99297	0.25668
1942.06440	0.25519
1940.13584	0.25368
1938.20728	0.25225
1936.27871	0.25096
1934.35015	0.24974
1932.42158	0.24855
1930.49302	0.24739
1928.56445	0.24624
1926.63589	0.24507
1924.70732	0.24407
1922.77876	0.24324
1920.85020	0.24227
1918.92163	0.24121
1916.99307	0.24020
1915.06450	0.23932
1913.13594	0.23849
1911.20737	0.23767
1909.27881	0.23692
1907.35024	0.23630
1905.42168	0.23570
1903.49312	0.23510
1901.56455	0.23458
1899.63599	0.23416
1897.70742	0.23376
1895.77886	0.23330
1893.85029	0.23286
1891.92173	0.23245
1889.99316	0.23225
1888.06460	0.23214
1886.13604	0.23187
1884.20747	0.23158
1882.27891	0.23136
1880.35034	0.23120
1878.42178	0.23114
1876.49321	0.23116
1874.56465	0.23118
1872.63608	0.23127
1870.70752	0.23147
1868.77896	0.23189
1866.85039	0.23221
1864.92183	0.23215
1862.99326	0.23211
1861.06470	0.23233
1859.13613	0.23273
1857.20757	0.23310
1855.27900	0.23350
1853.35044	0.23394
1851.42187	0.23446
1849.49331	0.23504
1847.56475	0.23570
1845.63618	0.23649
1843.70762	0.23745
1841.77905	0.23832
1839.85049	0.23890
1837.92192	0.23963
1835.99336	0.24048
1834.06479	0.24139
1832.13623	0.24237
1830.20767	0.24373
1828.27910	0.24523
1826.35054	0.24631
1824.42197	0.24751
1822.49341	0.24879
1820.56484	0.25007
1818.63628	0.25147
1816.70771	0.25306
1814.77915	0.25462
1812.85059	0.25627
1810.92202	0.25825
1808.99346	0.26033
1807.06489	0.26235
1805.13633	0.26430
1803.20776	0.26647
1801.27920	0.26889
1799.35063	0.27158
1797.42207	0.27410
1795.49351	0.27659
1793.56494	0.27949
1791.63638	0.28316
1789.70781	0.28660
1787.77925	0.28915
1785.85068	0.29217
1783.92212	0.29575
1781.99355	0.29953
1780.06499	0.30363
1778.13643	0.30800
1776.20786	0.31207
1774.27930	0.31631
1772.35073	0.32203
1770.42217	0.32826
1768.49360	0.33357
1766.56504	0.33878
1764.63647	0.34413
1762.70791	0.34988
1760.77935	0.35706
1758.85078	0.36390
1756.92222	0.37093
1754.99365	0.37860
1753.06509	0.38544
1751.13652	0.39344
1749.20796	0.40360
1747.27939	0.41390
1745.35083	0.42310
1743.42227	0.43280
1741.49370	0.44353
1739.56514	0.45624
1737.63657	0.46882
1735.70801	0.47962
1733.77944	0.49599
1731.85088	0.51581
1729.92231	0.53150
1727.99375	0.54742
1726.06519	0.56436
1724.13662	0.58261
1722.20806	0.60238
1720.27949	0.62078
1718.35093	0.64228
1716.42236	0.67420
1714.49380	0.70493
1712.56523	0.72977
1710.63667	0.75364
1708.70811	0.77931
1706.77954	0.80847
1704.85098	0.84347
1702.92241	0.87496
1700.99385	0.90604
1699.06528	0.95224
1697.13672	0.99492
1695.20815	1.03900
1693.27959	1.08205
1691.35103	1.11663
1689.42246	1.15649
1687.49390	1.19859
1685.56533	1.23916
1683.63677	1.30198
1681.70820	1.36741
1679.77964	1.40922
1677.85107	1.44919
1675.92251	1.49534
1673.99395	1.55224
1672.06538	1.60294
1670.13682	1.65344
1668.20825	1.71918
1666.27969	1.77225
1664.35112	1.81768
1662.42256	1.87573
1660.49399	1.94164
1658.56543	1.99316
1656.63687	2.03484
1654.70830	2.07306
1652.77974	2.13195
1650.85117	2.18484
1648.92261	2.20124
1646.99404	2.22523
1645.06548	2.25567
1643.13691	2.27512
1641.20835	2.28504
1639.27979	2.29458
1637.35122	2.30103
1635.42266	2.30054
1633.49409	2.29116
1631.56553	2.27561
1629.63696	2.25720
1627.70840	2.22765
1625.77983	2.19394
1623.85127	2.15292
1621.92271	2.10244
1619.99414	2.05723
1618.06558	2.01270
1616.13701	1.94855
1614.20845	1.88383
1612.27988	1.83458
1610.35132	1.78253
1608.42275	1.72604
1606.49419	1.67084
1604.56562	1.62063
1602.63706	1.57265
1600.70850	1.52569
1598.77993	1.48202
1596.85137	1.44075
1594.92280	1.40088
1592.99424	1.36282
1591.06567	1.32838
1589.13711	1.29629
1587.20854	1.26617
1585.27998	1.23818
1583.35142	1.21237
1581.42285	1.18915
1579.49429	1.16931
1577.56572	1.15149
1575.63716	1.13028
1573.70859	1.11193
1571.78003	1.09994
1569.85146	1.08758
1567.92290	1.07414
1565.99434	1.06423
1564.06577	1.05702
1562.13721	1.05180
1560.20864	1.04879
1558.28008	1.04628
1556.35151	1.04428
1554.42295	1.04315
1552.49438	1.04226
1550.56582	1.04007
1548.63726	1.03552
1546.70869	1.02906
1544.78013	1.02026
1542.85156	1.00849
1540.92300	0.99195
1538.99443	0.96753
1537.06587	0.94941
1535.13730	0.93660
1533.20874	0.91956
1531.28018	0.90107
1529.35161	0.88741
1527.42305	0.87476
1525.49448	0.86195
1523.56592	0.85099
1521.63735	0.84034
1519.70879	0.82967
1517.78022	0.82073
1515.85166	0.81033
1513.92310	0.79938
1511.99453	0.78992
1510.06597	0.78147
1508.13740	0.77334
1506.20884	0.76054
1504.28027	0.74910
1502.35171	0.74264
1500.42314	0.73700
1498.49458	0.73088
1496.56602	0.72378
1494.63745	0.71695
1492.70889	0.71165
1490.78032	0.70679
1488.85176	0.70118
1486.92319	0.69614
1484.99463	0.69223
1483.06606	0.68890
1481.13750	0.68585
1479.20894	0.68341
1477.28037	0.68190
1475.35181	0.68090
1473.42324	0.68001
1471.49468	0.67861
1469.56611	0.67649
1467.63755	0.67404
1465.70898	0.67174
1463.78042	0.67007
1461.85186	0.66915
1459.92329	0.66856
1457.99473	0.66822
1456.06616	0.66769
1454.13760	0.66583
1452.20903	0.66356
1450.28047	0.66132
1448.35190	0.65896
1446.42334	0.65637
1444.49478	0.65394
1442.56621	0.65163
1440.63765	0.64919
1438.70908	0.64673
1436.78052	0.64395
1434.85195	0.64084
1432.92339	0.63818
1430.99482	0.63622
1429.06626	0.63510
1427.13770	0.63480
1425.20913	0.63512
1423.28057	0.63569
1421.35200	0.63586
1419.42344	0.63573
1417.49487	0.63537
1415.56631	0.63444
1413.63774	0.63358
1411.70918	0.63326
1409.78062	0.63360
1407.85205	0.63441
1405.92349	0.63547
1403.99492	0.63631
1402.06636	0.63624
1400.13779	0.63540
1398.20923	0.63397
1396.28066	0.63182
1394.35210	0.62875
1392.42354	0.62517
1390.49497	0.62174
1388.56641	0.61818
1386.63784	0.61394
1384.70928	0.60951
1382.78071	0.60545
1380.85215	0.60166
1378.92358	0.59829
1376.99502	0.59561
1375.06646	0.59370
1373.13789	0.59231
1371.20933	0.59122
1369.28076	0.59037
1367.35220	0.58947
1365.42363	0.58817
1363.49507	0.58658
1361.56650	0.58504
1359.63794	0.58371
1357.70937	0.58252
1355.78081	0.58145
1353.85225	0.58060
1351.92368	0.57989
1349.99512	0.57924
1348.06655	0.57855
1346.13799	0.57776
1344.20942	0.57695
1342.28086	0.57618
1340.35229	0.57555
1338.42373	0.57502
1336.49517	0.57439
1334.56660	0.57375
1332.63804	0.57339
1330.70947	0.57349
1328.78091	0.57387
1326.85234	0.57423
1324.92378	0.57456
1322.99521	0.57504
1321.06665	0.57553
1319.13809	0.57576
1317.20952	0.57567
1315.28096	0.57539
1313.35239	0.57497
1311.42383	0.57446
1309.49526	0.57398
1307.56670	0.57353
1305.63813	0.57301
1303.70957	0.57228
1301.78101	0.57135
1299.85244	0.57041
1297.92388	0.56959
1295.99531	0.56867
1294.06675	0.56746
1292.13818	0.56619
1290.20962	0.56508
1288.28105	0.56406
1286.35249	0.56306
1284.42393	0.56206
1282.49536	0.56083
1280.56680	0.55949
1278.63823	0.55834
1276.70967	0.55746
1274.78110	0.55672
1272.85254	0.55599
1270.92397	0.55515
1268.99541	0.55420
1267.06685	0.55329
1265.13828	0.55251
1263.20972	0.55190
1261.28115	0.55127
1259.35259	0.55054
1257.42402	0.54985
1255.49546	0.54941
1253.56689	0.54931
1251.63833	0.54952
1249.70977	0.54981
1247.78120	0.54992
1245.85264	0.54968
1243.92407	0.54907
1241.99551	0.54822
1240.06694	0.54713
1238.13838	0.54575
1236.20981	0.54410
1234.28125	0.54225
1232.35269	0.54036
1230.42412	0.53864
1228.49556	0.53698
1226.56699	0.53531
1224.63843	0.53372
1222.70986	0.53224
1220.78130	0.53092
1218.85273	0.52976
1216.92417	0.52868
1214.99561	0.52779
1213.06704	0.52708
1211.13848	0.52642
1209.20991	0.52573
1207.28135	0.52500
1205.35278	0.52417
1203.42422	0.52325
1201.49565	0.52232
1199.56709	0.52148
1197.63853	0.52077
1195.70996	0.52026
1193.78140	0.51986
1191.85283	0.51957
1189.92427	0.51938
1187.99570	0.51913
1186.06714	0.51892
1184.13857	0.51893
1182.21001	0.51923
1180.28145	0.51997
1178.35288	0.52108
1176.42432	0.52219
1174.49575	0.52312
1172.56719	0.52374
1170.63862	0.52398
1168.71006	0.52389
1166.78149	0.52361
1164.85293	0.52331
1162.92437	0.52302
1160.99580	0.52255
1159.06724	0.52172
1157.13867	0.52073
1155.21011	0.51966
1153.28154	0.51836
1151.35298	0.51693
1149.42441	0.51519
1147.49585	0.51290
1145.56729	0.51041
1143.63872	0.50812
1141.71016	0.50613
1139.78159	0.50428
1137.85303	0.50259
1135.92446	0.50128
1133.99590	0.50047
1132.06733	0.49985
1130.13877	0.49921
1128.21021	0.49845
1126.28164	0.49745
1124.35308	0.49644
1122.42451	0.49566
1120.49595	0.49496
1118.56738	0.49434
1116.63882	0.49397
1114.71025	0.49385
1112.78169	0.49390
1110.85312	0.49413
1108.92456	0.49461
1106.99600	0.49536
1105.06743	0.49631
1103.13887	0.49749
1101.21030	0.49915
1099.28174	0.50147
1097.35317	0.50421
1095.42461	0.50705
1093.49604	0.51018
1091.56748	0.51417
1089.63892	0.51923
1087.71035	0.52508
1085.78179	0.53143
1083.85322	0.53794
1081.92466	0.54412
1079.99609	0.54942
1078.06753	0.55292
1076.13896	0.55370
1074.21040	0.55155
1072.28184	0.54709
1070.35327	0.54121
1068.42471	0.53459
1066.49614	0.52795
1064.56758	0.52187
1062.63901	0.51628
1060.71045	0.51092
1058.78188	0.50594
1056.85332	0.50168
1054.92476	0.49812
1052.99619	0.49519
1051.06763	0.49285
1049.13906	0.49080
1047.21050	0.48885
1045.28193	0.48707
1043.35337	0.48562
1041.42480	0.48444
1039.49624	0.48330
1037.56768	0.48230
1035.63911	0.48167
1033.71055	0.48123
1031.78198	0.48075
1029.85342	0.48031
1027.92485	0.48025
1025.99629	0.48048
1024.06772	0.48066
1022.13916	0.48099
1020.21060	0.48164
1018.28203	0.48230
1016.35347	0.48294
1014.42490	0.48373
1012.49634	0.48461
1010.56777	0.48569
1008.63921	0.48705
1006.71064	0.48857
1004.78208	0.49020
1002.85352	0.49223
1000.92495	0.49491
998.99639	0.49818
997.06782	0.50193
995.13926	0.50603
993.21069	0.51014
991.28213	0.51376
989.35356	0.51631
987.42500	0.51781
985.49644	0.51880
983.56787	0.51953
981.63931	0.52021
979.71074	0.52134
977.78218	0.52325
975.85361	0.52586
973.92505	0.52874
971.99648	0.53170
970.06792	0.53511
968.13936	0.53907
966.21079	0.54320
964.28223	0.54737
962.35366	0.55186
960.42510	0.55680
958.49653	0.56222
956.56797	0.56807
954.63940	0.57403
952.71084	0.58019
950.78228	0.58705
948.85371	0.59416
946.92515	0.60060
944.99658	0.60638
943.06802	0.61223
941.13945	0.61832
939.21089	0.62413
937.28232	0.62983
935.35376	0.63627
933.42520	0.64302
931.49663	0.64901
929.56807	0.65447
927.63950	0.65984
925.71094	0.66521
923.78237	0.67118
921.85381	0.67796
919.92524	0.68492
917.99668	0.69189
916.06812	0.69894
914.13955	0.70602
912.21099	0.71366
910.28242	0.72208
908.35386	0.73074
906.42529	0.73941
904.49673	0.74808
902.56816	0.75699
900.63960	0.76674
898.71104	0.77706
896.78247	0.78696
894.85391	0.79675
892.92534	0.80741
890.99678	0.81805
889.06821	0.82802
887.13965	0.83805
885.21108	0.84806
883.28252	0.85906
881.35396	0.87216
879.42539	0.88574
877.49683	0.89848
875.56826	0.91144
873.63970	0.92417
871.71113	0.93510
869.78257	0.94511
867.85400	0.95568
865.92544	0.96714
863.99687	0.97861
862.06831	0.98930
860.13975	0.99963
858.21118	1.01025
856.28262	1.02237
854.35405	1.03555
852.42549	1.04840
850.49692	1.06156
848.56836	1.07385
846.63979	1.08526
844.71123	1.09812
842.78267	1.11174
840.85410	1.12530
838.92554	1.13860
836.99697	1.15179
835.06841	1.16424
833.13984	1.17421
831.21128	1.18361
829.28271	1.19560
827.35415	1.20853
825.42559	1.22194
823.49702	1.24034
821.56846	1.25624
819.63989	1.26168
817.71133	1.26928
815.78276	1.29305
813.85420	1.32835
811.92563	1.35308
809.99707	1.35903
808.06851	1.36311
806.13994	1.37726
804.21138	1.39228
802.28281	1.40513
800.35425	1.42272
798.42568	1.43418
796.49712	1.43407
794.56855	1.43151
792.63999	1.46387
790.71143	1.55043
788.78286	1.61055
786.85430	1.64930
784.92573	1.81346
782.99717	2.11375
781.06860	2.31670
779.14004	3.15608
777.21147	2.07362
775.28291	1.58537
773.35435	1.42632
771.42578	1.45904
769.49722	1.54541
767.56865	1.51013
765.64009	1.44606
763.71152	1.50903
761.78296	1.57803
759.85439	1.54132
757.92583	1.47214
755.99727	1.39130
754.06870	1.46191
752.14014	1.66203
750.21157	1.44541
748.28301	1.20881
746.35444	1.12984
744.42588	1.12609
742.49731	1.09818
740.56875	1.02179
738.64019	0.89615
736.71162	0.74708
734.78306	0.62925
732.85449	0.51529
730.92593	0.35773
728.99736	0.19716
727.06880	0.08238
725.14023	-0.02612
723.21167	-0.09310
721.28311	-0.15609
719.35454	-0.06997
717.42598	0.01999
715.49741	0.06185
713.56885	0.11919
711.64028	0.19538
709.71172	0.27366
707.78315	0.32847
705.85459	0.35483
703.92603	0.35943
701.99746	0.34948
700.06890	0.33562
698.14033	0.35582
696.21177	0.38920
694.28320	0.40223
692.35464	0.38883
690.42607	0.33691
688.49751	0.28540
686.56895	0.27370
684.64038	0.30266
682.71182	0.35095
680.78325	0.39903
678.85469	0.39362
676.92612	0.34734
674.99756	0.36701
673.06899	0.43328
671.14043	0.43140
669.21187	0.35926
667.28330	0.28364
665.35474	0.24791
663.42617	0.26269
661.49761	0.28288
659.56904	0.30354
657.64048	0.35547
655.71191	0.40375
653.78335	0.39846
651.85479	0.35761
649.92622	0.33555
647.99766	0.34433
646.06909	0.36843
644.14053	0.37700
642.21196	0.40688
640.28340	0.51063
638.35483	0.52831
636.42627	0.40141
634.49771	0.33006
632.56914	0.34029
630.64058	0.36799
628.71201	0.34288
626.78345	0.27416
624.85488	0.25576
622.92632	0.33832
620.99775	0.38166
619.06919	0.31207
617.14062	0.26820
615.21206	0.27333
613.28350	0.30671
611.35493	0.33920
609.42637	0.34379
607.49780	0.34427
605.56924	0.37595
603.64067	0.41911
601.71211	0.39824
599.78354	0.32268
597.85498	0.26478
595.92642	0.25133
593.99785	0.25199
592.06929	0.23018
590.14072	0.19412
588.21216	0.18327
586.28359	0.22476
584.35503	0.30300
582.42646	0.33227
580.49790	0.31243
578.56934	0.31169
576.64077	0.33868
574.71221	0.39878
572.78364	0.45281
570.85508	0.38924
568.92651	0.29226
566.99795	0.25942
565.06938	0.25263
563.14082	0.25080
561.21226	0.30086
559.28369	0.34962
557.35513	0.31915
555.42656	0.26267
553.49800	0.23776
551.56943	0.27318
549.64087	0.32720
547.71230	0.29835
545.78374	0.24969
543.85518	0.25738
541.92661	0.28046
539.99805	0.27513
538.06948	0.26317
536.14092	0.30215
534.21235	0.39451
532.28379	0.41947
530.35522	0.34205
528.42666	0.30581
526.49810	0.35184
524.56953	0.37157
522.64097	0.32062
520.71240	0.30309
518.78384	0.29625
516.85527	0.24751
514.92671	0.21098
512.99814	0.21032
511.06958	0.20638
509.14102	0.20550
507.21245	0.22811
505.28389	0.24502
503.35532	0.25048
501.42676	0.24883
499.49819	0.23292
