3997.91411	0.06502
3995.98555	0.06504
3994.05698	0.06525
3992.12842	0.06563
3990.19985	0.06605
3988.27129	0.06646
3986.34272	0.06664
3984.41416	0.06675
3982.48560	0.06707
3980.55703	0.06743
3978.62847	0.06767
3976.69990	0.06775
3974.77134	0.06762
3972.84277	0.06756
3970.91421	0.06761
3968.98564	0.06767
3967.05708	0.06791
3965.12852	0.06839
3963.19995	0.06878
3961.27139	0.06873
3959.34282	0.06850
3957.41426	0.06856
3955.48569	0.06871
3953.55713	0.06866
3951.62856	0.06861
3949.70000	0.06872
3947.77144	0.06886
3945.84287	0.06882
3943.91431	0.06880
3941.98574	0.06905
3940.05718	0.06911
3938.12861	0.06877
3936.20005	0.06838
3934.27148	0.06826
3932.34292	0.06843
3930.41436	0.06860
3928.48579	0.06862
3926.55723	0.06879
3924.62866	0.06908
3922.70010	0.06895
3920.77153	0.06841
3918.84297	0.06797
3916.91440	0.06783
3914.98584	0.06794
3913.05728	0.06803
3911.12871	0.06789
3909.20015	0.06764
3907.27158	0.06759
3905.34302	0.06796
3903.41445	0.06835
3901.48589	0.06803
3899.55732	0.06758
3897.62876	0.06774
3895.70020	0.06798
3893.77163	0.06801
3891.84307	0.06798
3889.91450	0.06815
3887.98594	0.06851
3886.05737	0.06882
3884.12881	0.06896
3882.20024	0.06895
3880.27168	0.06904
3878.34312	0.06902
3876.41455	0.06896
3874.48599	0.06931
3872.55742	0.06988
3870.62886	0.07033
3868.70029	0.07072
3866.77173	0.07072
3864.84316	0.07051
3862.91460	0.07036
3860.98604	0.07038
3859.05747	0.07073
3857.12891	0.07113
3855.20034	0.07123
3853.27178	0.07118
3851.34321	0.07189
3849.41465	0.07304
3847.48608	0.07383
3845.55752	0.07443
3843.62896	0.07504
3841.70039	0.07560
3839.77183	0.07581
3837.84326	0.07603
3835.91470	0.07675
3833.98613	0.07770
3832.05757	0.07850
3830.12900	0.07909
3828.20044	0.07958
3826.27187	0.08036
3824.34331	0.08130
3822.41475	0.08202
3820.48618	0.08336
3818.55762	0.08511
3816.62905	0.08616
3814.70049	0.08688
3812.77192	0.08728
3810.84336	0.08777
3808.91479	0.08848
3806.98623	0.08938
3805.05767	0.09064
3803.12910	0.09172
3801.20054	0.09273
3799.27197	0.09416
3797.34341	0.09555
3795.41484	0.09716
3793.48628	0.09851
3791.55771	0.09912
3789.62915	0.09973
3787.70059	0.10091
3785.77202	0.10279
3783.84346	0.10494
3781.91489	0.10657
3779.98633	0.10779
3778.05776	0.10939
3776.12920	0.11093
3774.20063	0.11225
3772.27207	0.11379
3770.34351	0.11554
3768.41494	0.11730
3766.48638	0.11900
3764.55781	0.12116
3762.62925	0.12340
3760.70068	0.12535
3758.77212	0.12766
3756.84355	0.13008
3754.91499	0.13174
3752.98643	0.13320
3751.05786	0.13542
3749.12930	0.13877
3747.20073	0.14165
3745.27217	0.14369
3743.34360	0.14717
3741.41504	0.15152
3739.48647	0.15456
3737.55791	0.15744
3735.62935	0.16154
3733.70078	0.16671
3731.77222	0.17146
3729.84365	0.17546
3727.91509	0.17933
3725.98652	0.18466
3724.05796	0.19150
3722.12939	0.19831
3720.20083	0.20549
3718.27227	0.21358
3716.34370	0.22192
3714.41514	0.22996
3712.48657	0.23887
3710.55801	0.25084
3708.62944	0.26424
3706.70088	0.27609
3704.77231	0.28732
3702.84375	0.30010
3700.91519	0.31688
3698.98662	0.33566
3697.05806	0.35350
3695.12949	0.37204
3693.20093	0.39129
3691.27236	0.41185
3689.34380	0.43887
3687.41523	0.47364
3685.48667	0.50518
3683.55811	0.53195
3681.62954	0.55968
3679.70098	0.59046
3677.77241	0.62278
3675.84385	0.66082
3673.91528	0.71311
3671.98672	0.75720
3670.05815	0.79637
3668.12959	0.85006
3666.20103	0.89907
3664.27246	0.93956
3662.34390	0.98301
3660.41533	1.03017
3658.48677	1.07639
3656.55820	1.12501
3654.62964	1.17918
3652.70107	1.22446
3650.77251	1.26330
3648.84395	1.31732
3646.91538	1.38549
3644.98682	1.43715
3643.05825	1.47684
3641.12969	1.51675
3639.20112	1.56077
3637.27256	1.60519
3635.34399	1.64803
3633.41543	1.69045
3631.48687	1.72999
3629.55830	1.76974
3627.62974	1.82154
3625.70117	1.87129
3623.77261	1.90660
3621.84404	1.94025
3619.91548	1.97757
3617.98691	2.02284
3616.05835	2.06720
3614.12979	2.10409
3612.20122	2.14278
3610.27266	2.18160
3608.34409	2.22089
3606.41553	2.26416
3604.48696	2.30497
3602.55840	2.34037
3600.62983	2.37713
3598.70127	2.41701
3596.77271	2.45620
3594.84414	2.49612
3592.91558	2.53849
3590.98701	2.57863
3589.05845	2.61511
3587.12988	2.65800
3585.20132	2.70583
3583.27275	2.74701
3581.34419	2.78469
3579.41562	2.82496
3577.48706	2.86855
3575.55850	2.91302
3573.62993	2.95836
3571.70137	3.00132
3569.77280	3.03973
3567.84424	3.07901
3565.91567	3.12924
3563.98711	3.18195
3562.05854	3.22579
3560.12998	3.26748
3558.20142	3.31128
3556.27285	3.35616
3554.34429	3.39980
3552.41572	3.44337
3550.48716	3.48675
3548.55859	3.53042
3546.63003	3.57668
3544.70146	3.62630
3542.77290	3.67580
3540.84434	3.72317
3538.91577	3.77096
3536.98721	3.81946
3535.05864	3.86786
3533.13008	3.91343
3531.20151	3.95716
3529.27295	4.00290
3527.34438	4.05211
3525.41582	4.10218
3523.48726	4.15226
3521.55869	4.20326
3519.63013	4.25273
3517.70156	4.30201
3515.77300	4.34921
3513.84443	4.39084
3511.91587	4.43272
3509.98730	4.48221
3508.05874	4.53735
3506.13018	4.58738
3504.20161	4.62612
3502.27305	4.66420
3500.34448	4.71072
3498.41592	4.76032
3496.48735	4.81360
3494.55879	4.86764
3492.63022	4.91594
3490.70166	4.96354
3488.77310	5.01201
3486.84453	5.05664
3484.91597	5.09730
3482.98740	5.13947
3481.05884	5.19186
3479.13027	5.25076
3477.20171	5.30367
3475.27314	5.35033
3473.34458	5.39572
3471.41602	5.43980
3469.48745	5.48321
3467.55889	5.52938
3465.63032	5.57989
3463.70176	5.63364
3461.77319	5.67982
3459.84463	5.72238
3457.91606	5.77979
3455.98750	5.83824
3454.05894	5.87787
3452.13037	5.91762
3450.20181	5.96449
3448.27324	6.00095
3446.34468	6.04019
3444.41611	6.09388
3442.48755	6.15175
3440.55898	6.20660
3438.63042	6.25968
3436.70186	6.30935
3434.77329	6.35467
3432.84473	6.41056
3430.91616	6.46924
3428.98760	6.51487
3427.05903	6.56056
3425.13047	6.60128
3423.20190	6.60845
3421.27334	6.61081
3419.34478	6.65372
3417.41621	6.73582
3415.48765	6.81801
3413.55908	6.86514
3411.63052	6.90439
3409.70195	6.96432
3407.77339	7.03380
3405.84482	7.08560
3403.91626	7.11857
3401.98770	7.14604
3400.05913	7.17474
3398.13057	7.20418
3396.20200	7.24083
3394.27344	7.30667
3392.34487	7.36562
3390.41631	7.38067
3388.48774	7.38367
3386.55918	7.41357
3384.63062	7.44321
3382.70205	7.46109
3380.77349	7.50782
3378.84492	7.56472
3376.91636	7.58363
3374.98779	7.59396
3373.05923	7.64103
3371.13066	7.66808
3369.20210	7.65656
3367.27354	7.65098
3365.34497	7.69797
3363.41641	7.79204
3361.48784	7.85407
3359.55928	7.85409
3357.63071	7.80424
3355.70215	7.76587
3353.77358	7.78110
3351.84502	7.81845
3349.91646	7.84301
3347.98789	7.87193
3346.05933	7.87346
3344.13076	7.84154
3342.20220	7.87078
3340.27363	7.95782
3338.34507	7.99736
3336.41650	7.94399
3334.48794	7.89947
3332.55937	7.90699
3330.63081	7.92284
3328.70225	7.90187
3326.77368	7.83649
3324.84512	7.79554
3322.91655	7.81191
3320.98799	7.85090
3319.05942	7.87922
3317.13086	7.90595
3315.20229	7.89980
3313.27373	7.89873
3311.34517	7.97679
3309.41660	8.04178
3307.48804	8.00739
3305.55947	7.97221
3303.63091	7.97663
3301.70234	7.95234
3299.77378	7.93097
3297.84521	7.91442
3295.91665	7.89260
3293.98809	7.93419
3292.05952	8.00986
3290.13096	7.98365
3288.20239	7.90461
3286.27383	7.92364
3284.34526	7.96660
3282.41670	7.92946
3280.48813	7.87311
3278.55957	7.84911
3276.63101	7.83235
3274.70244	7.84882
3272.77388	7.92450
3270.84531	7.96313
3268.91675	7.93534
3266.98818	7.97368
3265.05962	8.14185
3263.13105	8.26711
3261.20249	8.23392
3259.27393	8.15402
3257.34536	8.06140
3255.41680	8.00620
3253.48823	8.05147
3251.55967	8.11117
3249.63110	8.16643
3247.70254	8.26516
3245.77397	8.24026
3243.84541	8.07279
3241.91685	7.98629
3239.98828	8.03023
3238.05972	8.06239
3236.13115	8.01121
3234.20259	7.97245
3232.27402	8.00345
3230.34546	8.07121
3228.41689	8.12617
3226.48833	8.15457
3224.55977	8.11968
3222.63120	8.03339
3220.70264	7.97330
3218.77407	7.98044
3216.84551	8.01452
3214.91694	7.96167
3212.98838	7.84958
3211.05981	7.78940
3209.13125	7.75685
3207.20269	7.70677
3205.27412	7.66938
3203.34556	7.64452
3201.41699	7.62701
3199.48843	7.62813
3197.55986	7.59290
3195.63130	7.51417
3193.70273	7.46659
3191.77417	7.46812
3189.84561	7.49888
3187.91704	7.51517
3185.98848	7.46021
3184.05991	7.35534
3182.13135	7.25644
3180.20278	7.17166
3178.27422	7.10285
3176.34565	7.06917
3174.41709	7.06877
3172.48853	7.06304
3170.55996	7.00956
3168.63140	6.92765
3166.70283	6.86108
3164.77427	6.81390
3162.84570	6.77243
3160.91714	6.72788
3158.98857	6.68355
3157.06001	6.63104
3155.13145	6.54380
3153.20288	6.43607
3151.27432	6.35001
3149.34575	6.27865
3147.41719	6.20991
3145.48862	6.15752
3143.56006	6.09783
3141.63149	6.01207
3139.70293	5.93438
3137.77437	5.88123
3135.84580	5.82917
3133.91724	5.76994
3131.98867	5.70721
3130.06011	5.63419
3128.13154	5.55285
3126.20298	5.47496
3124.27441	5.40720
3122.34585	5.34261
3120.41729	5.27145
3118.48872	5.19665
3116.56016	5.12635
3114.63159	5.05928
3112.70303	4.99180
3110.77446	4.92431
3108.84590	4.85741
3106.91733	4.78921
3104.98877	4.71878
3103.06021	4.65049
3101.13164	4.58407
3099.20308	4.51871
3097.27451	4.45456
3095.34595	4.38771
3093.41738	4.31938
3091.48882	4.25261
3089.56025	4.18605
3087.63169	4.11942
3085.70312	4.05606
3083.77456	3.99677
3081.84600	3.93849
3079.91743	3.87984
3077.98887	3.82246
3076.06030	3.76625
3074.13174	3.70889
3072.20317	3.64903
3070.27461	3.58683
3068.34604	3.52515
3066.41748	3.46658
3064.48892	3.41066
3062.56035	3.35630
3060.63179	3.30317
3058.70322	3.24984
3056.77466	3.19589
3054.84609	3.14287
3052.91753	3.09061
3050.98896	3.03895
3049.06040	2.98803
3047.13184	2.93727
3045.20327	2.88709
3043.27471	2.83820
3041.34614	2.79066
3039.41758	2.74401
3037.48901	2.69727
3035.56045	2.65021
3033.63188	2.60362
3031.70332	2.55785
3029.77476	2.51389
3027.84619	2.47209
3025.91763	2.43020
3023.98906	2.38714
3022.06050	2.34432
3020.13193	2.30254
3018.20337	2.26177
3016.27480	2.22202
3014.34624	2.18318
3012.41768	2.14516
3010.48911	2.10804
3008.56055	2.07147
3006.63198	2.03493
3004.70342	1.99859
3002.77485	1.96278
3000.84629	1.92752
2998.91772	1.89338
2996.98916	1.86069
2995.06060	1.82864
2993.13203	1.79658
2991.20347	1.76489
2989.27490	1.73423
2987.34634	1.70470
2985.41777	1.67570
2983.48921	1.64679
2981.56064	1.61818
2979.63208	1.59009
2977.70352	1.56282
2975.77495	1.53659
2973.84639	1.51102
2971.91782	1.48560
2969.98926	1.46030
2968.06069	1.43557
2966.13213	1.41151
2964.20356	1.38779
2962.27500	1.36424
2960.34644	1.34077
2958.41787	1.31731
2956.48931	1.29384
2954.56074	1.27052
2952.63218	1.24749
2950.70361	1.22466
2948.77505	1.20221
2946.84648	1.18033
2944.91792	1.15898
2942.98936	1.13848
2941.06079	1.11885
2939.13223	1.09940
2937.20366	1.07992
2935.27510	1.06067
2933.34653	1.04177
2931.41797	1.02321
2929.48940	1.00512
2927.56084	0.98763
2925.63228	0.97017
2923.70371	0.95275
2921.77515	0.93585
2919.84658	0.91904
2917.91802	0.90178
2915.98945	0.88439
2914.06089	0.86734
2912.13232	0.85111
2910.20376	0.83595
2908.27520	0.82132
2906.34663	0.80651
2904.41807	0.79168
2902.48950	0.77740
2900.56094	0.76374
2898.63237	0.75061
2896.70381	0.73774
2894.77524	0.72493
2892.84668	0.71240
2890.91812	0.70029
2888.98955	0.68864
2887.06099	0.67733
2885.13242	0.66632
2883.20386	0.65559
2881.27529	0.64516
2879.34673	0.63518
2877.41816	0.62555
2875.48960	0.61600
2873.56104	0.60643
2871.63247	0.59659
2869.70391	0.58618
2867.77534	0.57535
2865.84678	0.56454
2863.91821	0.55404
2861.98965	0.54397
2860.06108	0.53445
2858.13252	0.52537
2856.20396	0.51656
2854.27539	0.50808
2852.34683	0.49973
2850.41826	0.49124
2848.48970	0.48267
2846.56113	0.47428
2844.63257	0.46624
2842.70400	0.45870
2840.77544	0.45165
2838.84687	0.44493
2836.91831	0.43849
2834.98975	0.43230
2833.06118	0.42624
2831.13262	0.42018
2829.20405	0.41416
2827.27549	0.40815
2825.34692	0.40214
2823.41836	0.39623
2821.48979	0.39038
2819.56123	0.38451
2817.63267	0.37874
2815.70410	0.37314
2813.77554	0.36764
2811.84697	0.36227
2809.91841	0.35710
2807.98984	0.35203
2806.06128	0.34687
2804.13271	0.34172
2802.20415	0.33695
2800.27559	0.33252
2798.34702	0.32795
2796.41846	0.32314
2794.48989	0.31841
2792.56133	0.31386
2790.63276	0.30939
2788.70420	0.30485
2786.77563	0.30032
2784.84707	0.29616
2782.91851	0.29237
2780.98994	0.28856
2779.06138	0.28469
2777.13281	0.28091
2775.20425	0.27727
2773.27568	0.27370
2771.34712	0.27011
2769.41855	0.26649
2767.48999	0.26303
2765.56143	0.25973
2763.63286	0.25639
2761.70430	0.25309
2759.77573	0.24998
2757.84717	0.24697
2755.91860	0.24390
2753.99004	0.24077
2752.06147	0.23781
2750.13291	0.23505
2748.20435	0.23240
2746.27578	0.22972
2744.34722	0.22695
2742.41865	0.22421
2740.49009	0.22167
2738.56152	0.21935
2736.63296	0.21714
2734.70439	0.21483
2732.77583	0.21243
2730.84727	0.21008
2728.91870	0.20787
2726.99014	0.20582
2725.06157	0.20381
2723.13301	0.20179
2721.20444	0.19984
2719.27588	0.19794
2717.34731	0.19604
2715.41875	0.19410
2713.49019	0.19219
2711.56162	0.19052
2709.63306	0.18895
2707.70449	0.18721
2705.77593	0.18543
2703.84736	0.18374
2701.91880	0.18215
2699.99023	0.18074
2698.06167	0.17939
2696.13311	0.17796
2694.20454	0.17668
2692.27598	0.17552
2690.34741	0.17419
2688.41885	0.17283
2686.49028	0.17161
2684.56172	0.17044
2682.63315	0.16920
2680.70459	0.16797
2678.77603	0.16686
2676.84746	0.16586
2674.91890	0.16488
2672.99033	0.16391
2671.06177	0.16294
2669.13320	0.16196
2667.20464	0.16101
2665.27607	0.16008
2663.34751	0.15905
2661.41895	0.15810
2659.49038	0.15745
2657.56182	0.15692
2655.63325	0.15634
2653.70469	0.15576
2651.77612	0.15517
2649.84756	0.15457
2647.91899	0.15389
2645.99043	0.15319
2644.06187	0.15259
2642.13330	0.15207
2640.20474	0.15152
2638.27617	0.15092
2636.34761	0.15040
2634.41904	0.14999
2632.49048	0.14971
2630.56191	0.14948
2628.63335	0.14919
2626.70479	0.14888
2624.77622	0.14862
2622.84766	0.14839
2620.91909	0.14812
2618.99053	0.14779
2617.06196	0.14748
2615.13340	0.14728
2613.20483	0.14705
2611.27627	0.14680
2609.34771	0.14677
2607.41914	0.14698
2605.49058	0.14711
2603.56201	0.14698
2601.63345	0.14680
2599.70488	0.14677
2597.77632	0.14688
2595.84775	0.14699
2593.91919	0.14706
2591.99062	0.14719
2590.06206	0.14738
2588.13350	0.14761
2586.20493	0.14785
2584.27637	0.14802
2582.34780	0.14822
2580.41924	0.14852
2578.49067	0.14879
2576.56211	0.14901
2574.63354	0.14938
2572.70498	0.14987
2570.77642	0.15026
2568.84785	0.15050
2566.91929	0.15069
2564.99072	0.15101
2563.06216	0.15157
2561.13359	0.15216
2559.20503	0.15262
2557.27646	0.15302
2555.34790	0.15344
2553.41934	0.15390
2551.49077	0.15445
2549.56221	0.15502
2547.63364	0.15554
2545.70508	0.15604
2543.77651	0.15659
2541.84795	0.15728
2539.91938	0.15802
2537.99082	0.15867
2536.06226	0.15932
2534.13369	0.16000
2532.20513	0.16071
2530.27656	0.16141
2528.34800	0.16213
2526.41943	0.16290
2524.49087	0.16361
2522.56230	0.16427
2520.63374	0.16498
2518.70518	0.16568
2516.77661	0.16634
2514.84805	0.16721
2512.91948	0.16831
2510.99092	0.16931
2509.06235	0.17002
2507.13379	0.17066
2505.20522	0.17139
2503.27666	0.17216
2501.34810	0.17297
2499.41953	0.17388
2497.49097	0.17482
2495.56240	0.17569
2493.63384	0.17651
2491.70527	0.17735
2489.77671	0.17822
2487.84814	0.17904
2485.91958	0.17981
2483.99102	0.18064
2482.06245	0.18159
2480.13389	0.18258
2478.20532	0.18350
2476.27676	0.18434
2474.34819	0.18520
2472.41963	0.18612
2470.49106	0.18702
2468.56250	0.18784
2466.63394	0.18869
2464.70537	0.18971
2462.77681	0.19077
2460.84824	0.19173
2458.91968	0.19258
2456.99111	0.19343
2455.06255	0.19439
2453.13398	0.19539
2451.20542	0.19644
2449.27686	0.19753
2447.34829	0.19857
2445.41973	0.19956
2443.49116	0.20062
2441.56260	0.20174
2439.63403	0.20280
2437.70547	0.20378
2435.77690	0.20467
2433.84834	0.20551
2431.91978	0.20650
2429.99121	0.20770
2428.06265	0.20887
2426.13408	0.20991
2424.20552	0.21090
2422.27695	0.21197
2420.34839	0.21315
2418.41982	0.21433
2416.49126	0.21545
2414.56270	0.21657
2412.63413	0.21770
2410.70557	0.21881
2408.77700	0.22000
2406.84844	0.22127
2404.91987	0.22249
2402.99131	0.22358
2401.06274	0.22465
2399.13418	0.22585
2397.20562	0.22711
2395.27705	0.22830
2393.34849	0.22948
2391.41992	0.23075
2389.49136	0.23205
2387.56279	0.23325
2385.63423	0.23419
2383.70566	0.23483
2381.77710	0.23514
2379.84854	0.23505
2377.91997	0.23463
2375.99141	0.23400
2374.06284	0.23296
2372.13428	0.23151
2370.20571	0.23009
2368.27715	0.22898
2366.34858	0.22811
2364.42002	0.22688
2362.49146	0.22548
2360.56289	0.22524
2358.63433	0.22672
2356.70576	0.22996
2354.77720	0.23493
2352.84863	0.24109
2350.92007	0.24657
2348.99150	0.24963
2347.06294	0.25022
2345.13437	0.24920
2343.20581	0.24831
2341.27725	0.24892
2339.34868	0.25044
2337.42012	0.25274
2335.49155	0.25547
2333.56299	0.25768
2331.63442	0.25980
2329.70586	0.26241
2327.77729	0.26517
2325.84873	0.26760
2323.92017	0.26977
2321.99160	0.27226
2320.06304	0.27531
2318.13447	0.27856
2316.20591	0.28152
2314.27734	0.28408
2312.34878	0.28652
2310.42021	0.28912
2308.49165	0.29182
2306.56309	0.29450
2304.63452	0.29702
2302.70596	0.29926
2300.77739	0.30143
2298.84883	0.30371
2296.92026	0.30603
2294.99170	0.30826
2293.06313	0.31034
2291.13457	0.31230
2289.20601	0.31430
2287.27744	0.31643
2285.34888	0.31870
2283.42031	0.32093
2281.49175	0.32295
2279.56318	0.32489
2277.63462	0.32687
2275.70605	0.32884
2273.77749	0.33082
2271.84893	0.33288
2269.92036	0.33499
2267.99180	0.33702
2266.06323	0.33908
2264.13467	0.34131
2262.20610	0.34356
2260.27754	0.34567
2258.34897	0.34774
2256.42041	0.34991
2254.49185	0.35216
2252.56328	0.35441
2250.63472	0.35655
2248.70615	0.35863
2246.77759	0.36085
2244.84902	0.36323
2242.92046	0.36564
2240.99189	0.36799
2239.06333	0.37026
2237.13477	0.37251
2235.20620	0.37463
2233.27764	0.37669
2231.34907	0.37895
2229.42051	0.38134
2227.49194	0.38363
2225.56338	0.38577
2223.63481	0.38787
2221.70625	0.39004
2219.77769	0.39231
2217.84912	0.39450
2215.92056	0.39657
2213.99199	0.39867
2212.06343	0.40083
2210.13486	0.40302
2208.20630	0.40522
2206.27773	0.40728
2204.34917	0.40921
2202.42061	0.41124
2200.49204	0.41342
2198.56348	0.41554
2196.63491	0.41752
2194.70635	0.41943
2192.77778	0.42139
2190.84922	0.42332
2188.92065	0.42520
2186.99209	0.42710
2185.06353	0.42900
2183.13496	0.43083
2181.20640	0.43253
2179.27783	0.43409
2177.34927	0.43563
2175.42070	0.43718
2173.49214	0.43868
2171.56357	0.44002
2169.63501	0.44128
2167.70645	0.44257
2165.77788	0.44392
2163.84932	0.44529
2161.92075	0.44661
2159.99219	0.44769
2158.06362	0.44850
2156.13506	0.44927
2154.20649	0.45020
2152.27793	0.45119
2150.34937	0.45201
2148.42080	0.45263
2146.49224	0.45324
2144.56367	0.45385
2142.63511	0.45428
2140.70654	0.45454
2138.77798	0.45478
2136.84941	0.45505
2134.92085	0.45530
2132.99229	0.45534
2131.06372	0.45520
2129.13516	0.45499
2127.20659	0.45472
2125.27803	0.45448
2123.34946	0.45410
2121.42090	0.45349
2119.49233	0.45290
2117.56377	0.45237
2115.63521	0.45163
2113.70664	0.45076
2111.77808	0.44994
2109.84951	0.44905
2107.92095	0.44795
2105.99238	0.44673
2104.06382	0.44551
2102.13525	0.44432
2100.20669	0.44311
2098.27812	0.44175
2096.34956	0.44024
2094.42100	0.43872
2092.49243	0.43725
2090.56387	0.43568
2088.63530	0.43392
2086.70674	0.43211
2084.77817	0.43023
2082.84961	0.42828
2080.92104	0.42637
2078.99248	0.42448
2077.06392	0.42245
2075.13535	0.42025
2073.20679	0.41800
2071.27822	0.41579
2069.34966	0.41362
2067.42109	0.41132
2065.49253	0.40894
2063.56396	0.40654
2061.63540	0.40414
2059.70684	0.40179
2057.77827	0.39939
2055.84971	0.39686
2053.92114	0.39423
2051.99258	0.39154
2050.06401	0.38882
2048.13545	0.38627
2046.20688	0.38384
2044.27832	0.38127
2042.34976	0.37858
2040.42119	0.37587
2038.49263	0.37312
2036.56406	0.37035
2034.63550	0.36756
2032.70693	0.36472
2030.77837	0.36190
2028.84980	0.35915
2026.92124	0.35647
2024.99268	0.35378
2023.06411	0.35108
2021.13555	0.34839
2019.20698	0.34570
2017.27842	0.34294
2015.34985	0.34011
2013.42129	0.33730
2011.49272	0.33456
2009.56416	0.33190
2007.63560	0.32924
2005.70703	0.32656
2003.77847	0.32389
2001.84990	0.32123
1999.92134	0.31862
1997.99277	0.31602
1996.06421	0.31341
1994.13564	0.31087
1992.20708	0.30835
1990.27852	0.30582
1988.34995	0.30340
1986.42139	0.30096
1984.49282	0.29847
1982.56426	0.29610
1980.63569	0.29380
1978.70713	0.29152
1976.77856	0.28934
1974.85000	0.28726
1972.92144	0.28512
1970.99287	0.28297
1969.06431	0.28085
1967.13574	0.27875
1965.20718	0.27671
1963.27861	0.27475
1961.35005	0.27278
1959.42148	0.27085
1957.49292	0.26905
1955.56436	0.26732
1953.63579	0.26560
1951.70723	0.26393
1949.77866	0.26226
1947.85010	0.26062
1945.92153	0.25911
1943.99297	0.25768
1942.06440	0.25620
1940.13584	0.25471
1938.20728	0.25329
1936.27871	0.25191
1934.35015	0.25050
1932.42158	0.24922
1930.49302	0.24815
1928.56445	0.24708
1926.63589	0.24586
1924.70732	0.24470
1922.77876	0.24378
1920.85020	0.24292
1918.92163	0.24200
1916.99307	0.24109
1915.06450	0.24021
1913.13594	0.23931
1911.20737	0.23847
1909.27881	0.23772
1907.35024	0.23711
1905.42168	0.23654
1903.49312	0.23596
1901.56455	0.23545
1899.63599	0.23494
1897.70742	0.23442
1895.77886	0.23397
1893.85029	0.23365
1891.92173	0.23329
1889.99316	0.23300
1888.06460	0.23282
1886.13604	0.23266
1884.20747	0.23248
1882.27891	0.23227
1880.35034	0.23205
1878.42178	0.23182
1876.49321	0.23172
1874.56465	0.23172
1872.63608	0.23186
1870.70752	0.23208
1868.77896	0.23246
1866.85039	0.23280
1864.92183	0.23291
1862.99326	0.23298
1861.06470	0.23317
1859.13613	0.23351
1857.20757	0.23387
1855.27900	0.23435
1853.35044	0.23486
1851.42187	0.23533
1849.49331	0.23577
1847.56475	0.23634
1845.63618	0.23707
1843.70762	0.23802
1841.77905	0.23897
1839.85049	0.23959
1837.92192	0.24037
1835.99336	0.24135
1834.06479	0.24225
1832.13623	0.24299
1830.20767	0.24413
1828.27910	0.24566
1826.35054	0.24688
1824.42197	0.24819
1822.49341	0.24956
1820.56484	0.25084
1818.63628	0.25219
1816.70771	0.25382
1814.77915	0.25546
1812.85059	0.25713
1810.92202	0.25907
1808.99346	0.26109
1807.06489	0.26304
1805.13633	0.26501
1803.20776	0.26718
1801.27920	0.26950
1799.35063	0.27219
1797.42207	0.27481
1795.49351	0.27721
1793.56494	0.27983
1791.63638	0.28343
1789.70781	0.28718
1787.77925	0.28994
1785.85068	0.29296
1783.92212	0.29659
1781.99355	0.30055
1780.06499	0.30474
1778.13643	0.30907
1776.20786	0.31302
1774.27930	0.31698
1772.35073	0.32241
1770.42217	0.32885
1768.49360	0.33457
1766.56504	0.33993
1764.63647	0.34523
1762.70791	0.35089
1760.77935	0.35818
1758.85078	0.36522
1756.92222	0.37233
1754.99365	0.38020
1753.06509	0.38724
1751.13652	0.39517
1749.20796	0.40517
1747.27939	0.41566
1745.35083	0.42527
1743.42227	0.43530
1741.49370	0.44616
1739.56514	0.45867
1737.63657	0.47090
1735.70801	0.48134
1733.77944	0.49726
1731.85088	0.51706
1729.92231	0.53309
1727.99375	0.54909
1726.06519	0.56583
1724.13662	0.58387
1722.20806	0.60354
1720.27949	0.62174
1718.35093	0.64278
1716.42236	0.67448
1714.49380	0.70558
1712.56523	0.73079
1710.63667	0.75479
1708.70811	0.78020
1706.77954	0.80885
1704.85098	0.84347
1702.92241	0.87466
1700.99385	0.90504
1699.06528	0.95053
1697.13672	0.99326
1695.20815	1.03742
1693.27959	1.08011
1691.35103	1.11406
1689.42246	1.15326
1687.49390	1.19457
1685.56533	1.23344
1683.63677	1.29411
1681.70820	1.35974
1679.77964	1.40229
1677.85107	1.44191
1675.92251	1.48663
1673.99395	1.54187
1672.06538	1.59163
1670.13682	1.64065
1668.20825	1.70462
1666.27969	1.75675
1664.35112	1.80011
1662.42256	1.85388
1660.49399	1.91488
1658.56543	1.96214
1656.63687	1.99944
1654.70830	2.03228
1652.77974	2.08543
1650.85117	2.14010
1648.92261	2.16023
1646.99404	2.18603
1645.06548	2.21904
1643.13691	2.24189
1641.20835	2.25441
1639.27979	2.26439
1637.35122	2.26837
1635.42266	2.26533
1633.49409	2.26018
1631.56553	2.24911
1629.63696	2.23192
1627.70840	2.20472
1625.77983	2.17536
1623.85127	2.13743
1621.92271	2.08872
1619.99414	2.04439
1618.06558	2.00031
1616.13701	1.93802
1614.20845	1.87601
1612.27988	1.82934
1610.35132	1.77976
1608.42275	1.72514
1606.49419	1.67195
1604.56562	1.62365
1602.63706	1.57613
1600.70850	1.52910
1598.77993	1.48619
1596.85137	1.44591
1594.92280	1.40634
1592.99424	1.36767
1591.06567	1.33201
1589.13711	1.29860
1587.20854	1.26764
1585.27998	1.23903
1583.35142	1.21207
1581.42285	1.18715
1579.49429	1.16545
1577.56572	1.14558
1575.63716	1.12186
1573.70859	1.10165
1571.78003	1.08854
1569.85146	1.07479
1567.92290	1.05963
1565.99434	1.04781
1564.06577	1.03818
1562.13721	1.03047
1560.20864	1.02441
1558.28008	1.01688
1556.35151	1.01198
1554.42295	1.00897
1552.49438	1.00565
1550.56582	1.00135
1548.63726	0.99516
1546.70869	0.98764
1544.78013	0.97819
1542.85156	0.96617
1540.92300	0.95012
1538.99443	0.92803
1537.06587	0.91284
1535.13730	0.90212
1533.20874	0.88745
1531.28018	0.87162
1529.35161	0.85984
1527.42305	0.84866
1525.49448	0.83714
1523.56592	0.82708
1521.63735	0.81711
1519.70879	0.80739
1517.78022	0.79957
1515.85166	0.79057
1513.92310	0.78112
1511.99453	0.77299
1510.06597	0.76554
1508.13740	0.75792
1506.20884	0.74666
1504.28027	0.73786
1502.35171	0.73290
1500.42314	0.72816
1498.49458	0.72299
1496.56602	0.71718
1494.63745	0.71156
1492.70889	0.70702
1490.78032	0.70295
1488.85176	0.69868
1486.92319	0.69491
1484.99463	0.69187
1483.06606	0.68930
1481.13750	0.68701
1479.20894	0.68509
1477.28037	0.68371
1475.35181	0.68271
1473.42324	0.68210
1471.49468	0.68135
1469.56611	0.67985
1467.63755	0.67787
1465.70898	0.67577
1463.78042	0.67380
1461.85186	0.67222
1459.92329	0.67091
1457.99473	0.66948
1456.06616	0.66783
1454.13760	0.66592
1452.20903	0.66364
1450.28047	0.66101
1448.35190	0.65818
1446.42334	0.65534
1444.49478	0.65287
1442.56621	0.65062
1440.63765	0.64828
1438.70908	0.64582
1436.78052	0.64282
1434.85195	0.63959
1432.92339	0.63712
1430.99482	0.63531
1429.06626	0.63404
1427.13770	0.63328
1425.20913	0.63284
1423.28057	0.63259
1421.35200	0.63221
1419.42344	0.63173
1417.49487	0.63126
1415.56631	0.63020
1413.63774	0.62896
1411.70918	0.62806
1409.78062	0.62765
1407.85205	0.62766
1405.92349	0.62787
1403.99492	0.62794
1402.06636	0.62748
1400.13779	0.62645
1398.20923	0.62479
1396.28066	0.62255
1394.35210	0.61979
1392.42354	0.61682
1390.49497	0.61407
1388.56641	0.61126
1386.63784	0.60808
1384.70928	0.60486
1382.78071	0.60178
1380.85215	0.59880
1378.92358	0.59613
1376.99502	0.59395
1375.06646	0.59228
1373.13789	0.59118
1371.20933	0.59058
1369.28076	0.59002
1367.35220	0.58905
1365.42363	0.58773
1363.49507	0.58634
1361.56650	0.58507
1359.63794	0.58391
1357.70937	0.58281
1355.78081	0.58167
1353.85225	0.58044
1351.92368	0.57923
1349.99512	0.57827
1348.06655	0.57751
1346.13799	0.57670
1344.20942	0.57580
1342.28086	0.57489
1340.35229	0.57407
1338.42373	0.57331
1336.49517	0.57271
1334.56660	0.57228
1332.63804	0.57187
1330.70947	0.57145
1328.78091	0.57124
1326.85234	0.57132
1324.92378	0.57151
1322.99521	0.57164
1321.06665	0.57169
1319.13809	0.57168
1317.20952	0.57153
1315.28096	0.57122
1313.35239	0.57072
1311.42383	0.56996
1309.49526	0.56909
1307.56670	0.56834
1305.63813	0.56768
1303.70957	0.56686
1301.78101	0.56590
1299.85244	0.56496
1297.92388	0.56413
1295.99531	0.56329
1294.06675	0.56221
1292.13818	0.56097
1290.20962	0.55994
1288.28105	0.55913
1286.35249	0.55832
1284.42393	0.55746
1282.49536	0.55649
1280.56680	0.55536
1278.63823	0.55421
1276.70967	0.55324
1274.78110	0.55239
1272.85254	0.55160
1270.92397	0.55088
1268.99541	0.55021
1267.06685	0.54959
1265.13828	0.54894
1263.20972	0.54827
1261.28115	0.54765
1259.35259	0.54709
1257.42402	0.54661
1255.49546	0.54621
1253.56689	0.54593
1251.63833	0.54582
1249.70977	0.54582
1247.78120	0.54569
1245.85264	0.54529
1243.92407	0.54473
1241.99551	0.54413
1240.06694	0.54329
1238.13838	0.54204
1236.20981	0.54053
1234.28125	0.53901
1232.35269	0.53750
1230.42412	0.53594
1228.49556	0.53436
1226.56699	0.53288
1224.63843	0.53149
1222.70986	0.53023
1220.78130	0.52921
1218.85273	0.52818
1216.92417	0.52692
1214.99561	0.52572
1213.06704	0.52497
1211.13848	0.52456
1209.20991	0.52414
1207.28135	0.52356
1205.35278	0.52283
1203.42422	0.52203
1201.49565	0.52125
1199.56709	0.52053
1197.63853	0.51988
1195.70996	0.51926
1193.78140	0.51860
1191.85283	0.51792
1189.92427	0.51736
1187.99570	0.51697
1186.06714	0.51672
1184.13857	0.51669
1182.21001	0.51703
1180.28145	0.51775
1178.35288	0.51871
1176.42432	0.51988
1174.49575	0.52110
1172.56719	0.52203
1170.63862	0.52266
1168.71006	0.52318
1166.78149	0.52348
1164.85293	0.52371
1162.92437	0.52412
1160.99580	0.52441
1159.06724	0.52425
1157.13867	0.52375
1155.21011	0.52298
1153.28154	0.52184
1151.35298	0.52024
1149.42441	0.51811
1147.49585	0.51551
1145.56729	0.51267
1143.63872	0.50996
1141.71016	0.50750
1139.78159	0.50526
1137.85303	0.50353
1135.92446	0.50232
1133.99590	0.50126
1132.06733	0.50042
1130.13877	0.49983
1128.21021	0.49923
1126.28164	0.49846
1124.35308	0.49763
1122.42451	0.49692
1120.49595	0.49649
1118.56738	0.49627
1116.63882	0.49629
1114.71025	0.49677
1112.78169	0.49746
1110.85312	0.49791
1108.92456	0.49831
1106.99600	0.49897
1105.06743	0.49982
1103.13887	0.50078
1101.21030	0.50192
1099.28174	0.50356
1097.35317	0.50587
1095.42461	0.50884
1093.49604	0.51248
1091.56748	0.51685
1089.63892	0.52240
1087.71035	0.52915
1085.78179	0.53657
1083.85322	0.54430
1081.92466	0.55162
1079.99609	0.55739
1078.06753	0.56054
1076.13896	0.56041
1074.21040	0.55736
1072.28184	0.55235
1070.35327	0.54605
1068.42471	0.53912
1066.49614	0.53229
1064.56758	0.52607
1062.63901	0.52067
1060.71045	0.51594
1058.78188	0.51169
1056.85332	0.50791
1054.92476	0.50461
1052.99619	0.50177
1051.06763	0.49933
1049.13906	0.49743
1047.21050	0.49627
1045.28193	0.49572
1043.35337	0.49553
1041.42480	0.49561
1039.49624	0.49577
1037.56768	0.49584
1035.63911	0.49575
1033.71055	0.49537
1031.78198	0.49464
1029.85342	0.49363
1027.92485	0.49246
1025.99629	0.49135
1024.06772	0.49070
1022.13916	0.49059
1020.21060	0.49083
1018.28203	0.49124
1016.35347	0.49156
1014.42490	0.49165
1012.49634	0.49154
1010.56777	0.49148
1008.63921	0.49176
1006.71064	0.49258
1004.78208	0.49401
1002.85352	0.49591
1000.92495	0.49825
998.99639	0.50142
997.06782	0.50546
995.13926	0.50964
993.21069	0.51349
991.28213	0.51684
989.35356	0.51917
987.42500	0.52031
985.49644	0.52078
983.56787	0.52119
981.63931	0.52180
979.71074	0.52273
977.78218	0.52417
975.85361	0.52640
973.92505	0.52919
971.99648	0.53217
970.06792	0.53541
968.13936	0.53903
966.21079	0.54308
964.28223	0.54767
962.35366	0.55264
960.42510	0.55768
958.49653	0.56295
956.56797	0.56858
954.63940	0.57437
952.71084	0.58034
950.78228	0.58666
948.85371	0.59305
946.92515	0.59920
944.99658	0.60537
943.06802	0.61156
941.13945	0.61761
939.21089	0.62350
937.28232	0.62915
935.35376	0.63462
933.42520	0.64013
931.49663	0.64609
929.56807	0.65226
927.63950	0.65791
925.71094	0.66339
923.78237	0.66929
921.85381	0.67557
919.92524	0.68236
917.99668	0.68946
916.06812	0.69628
914.13955	0.70291
912.21099	0.71001
910.28242	0.71816
908.35386	0.72705
906.42529	0.73568
904.49673	0.74371
902.56816	0.75169
900.63960	0.76027
898.71104	0.76962
896.78247	0.78024
894.85391	0.79222
892.92534	0.80312
890.99678	0.81170
889.06821	0.82060
887.13965	0.83138
885.21108	0.84330
883.28252	0.85578
881.35396	0.86815
879.42539	0.87982
877.49683	0.89051
875.56826	0.90020
873.63970	0.90947
871.71113	0.91916
869.78257	0.92983
867.85400	0.94164
865.92544	0.95387
863.99687	0.96536
862.06831	0.97574
860.13975	0.98627
858.21118	0.99887
856.28262	1.01303
854.35405	1.02530
852.42549	1.03444
850.49692	1.04488
848.56836	1.05758
846.63979	1.06879
844.71123	1.07910
842.78267	1.08952
840.85410	1.09922
838.92554	1.10887
836.99697	1.12026
835.06841	1.13229
833.13984	1.14158
831.21128	1.15018
829.28271	1.16028
827.35415	1.16922
825.42559	1.17892
823.49702	1.19354
821.56846	1.20787
819.63989	1.21541
817.71133	1.21783
815.78276	1.22219
813.85420	1.23103
811.92563	1.23698
809.99707	1.23647
808.06851	1.23331
806.13994	1.23083
804.21138	1.23437
802.28281	1.25266
800.35425	1.27631
798.42568	1.29134
796.49712	1.31086
794.56855	1.33247
792.63999	1.33309
790.71143	1.30916
788.78286	1.27171
786.85430	1.24052
784.92573	1.22232
782.99717	1.20345
781.06860	1.20074
779.14004	1.21310
777.21147	1.19793
775.28291	1.17025
773.35435	1.15865
771.42578	1.15911
769.49722	1.16874
767.56865	1.19535
765.64009	1.22755
763.71152	1.22204
761.78296	1.18722
759.85439	1.13837
757.92583	1.07068
755.99727	1.02838
754.06870	1.01722
752.14014	1.00171
750.21157	0.97099
748.28301	0.91868
746.35444	0.88226
744.42588	0.87969
742.49731	0.85379
740.56875	0.78840
738.64019	0.71988
736.71162	0.63615
734.78306	0.54180
732.85449	0.50016
730.92593	0.52316
728.99736	0.52998
727.06880	0.43304
725.14023	0.30831
723.21167	0.22673
721.28311	0.12576
719.35454	-0.00327
717.42598	-0.07919
715.49741	-0.09299
713.56885	-0.10882
711.64028	-0.14181
709.71172	-0.12993
707.78315	-0.10320
705.85459	-0.14611
703.92603	-0.19330
701.99746	-0.14764
700.06890	-0.08446
698.14033	-0.01682
696.21177	0.07600
694.28320	0.18130
692.35464	0.23796
690.42607	0.18298
688.49751	0.11049
686.56895	0.05639
684.64038	0.04044
682.71182	0.13854
680.78325	0.24659
678.85469	0.24741
676.92612	0.21485
674.99756	0.15699
673.06899	0.10518
671.14043	0.09519
669.21187	0.11500
667.28330	0.12193
665.35474	0.08519
663.42617	0.08920
661.49761	0.13533
659.56904	0.13519
657.64048	0.07805
655.71191	0.06537
653.78335	0.12886
651.85479	0.19996
649.92622	0.20722
647.99766	0.11699
646.06909	0.00264
644.14053	0.00131
642.21196	0.04509
640.28340	0.03285
638.35483	0.00550
636.42627	0.02054
634.49771	0.06091
632.56914	0.07566
630.64058	0.07480
628.71201	0.09480
626.78345	0.12165
624.85488	0.11001
622.92632	0.08050
620.99775	0.09544
619.06919	0.15821
617.14062	0.19296
615.21206	0.16149
613.28350	0.13802
611.35493	0.15576
609.42637	0.15688
607.49780	0.09615
605.56924	0.06017
603.64067	0.04048
601.71211	-0.01061
599.78354	-0.03938
597.85498	0.00631
595.92642	0.05632
593.99785	0.07531
592.06929	0.09547
590.14072	0.11249
588.21216	0.11504
586.28359	0.11167
584.35503	0.13053
582.42646	0.16097
580.49790	0.15290
578.56934	0.12674
576.64077	0.12745
574.71221	0.13378
572.78364	0.11126
570.85508	0.07356
568.92651	0.06546
566.99795	0.10541
565.06938	0.13649
563.14082	0.09801
561.21226	0.03282
559.28369	0.06888
557.35513	0.17117
555.42656	0.19490
553.49800	0.15576
551.56943	0.12851
549.64087	0.13639
547.71230	0.14426
545.78374	0.13086
543.85518	0.14360
541.92661	0.19129
539.99805	0.17442
538.06948	0.10010
536.14092	0.06658
534.21235	0.08473
532.28379	0.11480
530.35522	0.14296
528.42666	0.13606
526.49810	0.08740
524.56953	0.04762
522.64097	0.04577
520.71240	0.06292
518.78384	0.08437
516.85527	0.09692
514.92671	0.09001
512.99814	0.08008
511.06958	0.06144
509.14102	0.03496
507.21245	0.02829
505.28389	0.05436
503.35532	0.10135
501.42676	0.12988
499.49819	0.11033
