3997.91411	0.06617
3995.98555	0.06627
3994.05698	0.06643
3992.12842	0.06689
3990.19985	0.06753
3988.27129	0.06819
3986.34272	0.06858
3984.41416	0.06884
3982.48560	0.06924
3980.55703	0.06948
3978.62847	0.06958
3976.69990	0.06976
3974.77134	0.06973
3972.84277	0.06963
3970.91421	0.06982
3968.98564	0.07022
3967.05708	0.07069
3965.12852	0.07103
3963.19995	0.07089
3961.27139	0.07049
3959.34282	0.07039
3957.41426	0.07061
3955.48569	0.07092
3953.55713	0.07109
3951.62856	0.07093
3949.70000	0.07071
3947.77144	0.07090
3945.84287	0.07136
3943.91431	0.07176
3941.98574	0.07210
3940.05718	0.07205
3938.12861	0.07150
3936.20005	0.07079
3934.27148	0.07026
3932.34292	0.07015
3930.41436	0.07043
3928.48579	0.07083
3926.55723	0.07112
3924.62866	0.07119
3922.70010	0.07090
3920.77153	0.07038
3918.84297	0.06988
3916.91440	0.06983
3914.98584	0.07034
3913.05728	0.07069
3911.12871	0.07063
3909.20015	0.07037
3907.27158	0.07023
3905.34302	0.07039
3903.41445	0.07060
3901.48589	0.07044
3899.55732	0.07044
3897.62876	0.07087
3895.70020	0.07098
3893.77163	0.07052
3891.84307	0.06988
3889.91450	0.06963
3887.98594	0.06984
3886.05737	0.07036
3884.12881	0.07102
3882.20024	0.07116
3880.27168	0.07131
3878.34312	0.07173
3876.41455	0.07158
3874.48599	0.07127
3872.55742	0.07141
3870.62886	0.07176
3868.70029	0.07232
3866.77173	0.07281
3864.84316	0.07288
3862.91460	0.07279
3860.98604	0.07295
3859.05747	0.07329
3857.12891	0.07343
3855.20034	0.07347
3853.27178	0.07386
3851.34321	0.07521
3849.41465	0.07640
3847.48608	0.07675
3845.55752	0.07686
3843.62896	0.07722
3841.70039	0.07773
3839.77183	0.07800
3837.84326	0.07838
3835.91470	0.07944
3833.98613	0.08069
3832.05757	0.08135
3830.12900	0.08163
3828.20044	0.08202
3826.27187	0.08251
3824.34331	0.08301
3822.41475	0.08360
3820.48618	0.08471
3818.55762	0.08606
3816.62905	0.08743
3814.70049	0.08884
3812.77192	0.08942
3810.84336	0.08981
3808.91479	0.09073
3806.98623	0.09194
3805.05767	0.09303
3803.12910	0.09374
3801.20054	0.09484
3799.27197	0.09657
3797.34341	0.09784
3795.41484	0.09930
3793.48628	0.10102
3791.55771	0.10218
3789.62915	0.10299
3787.70059	0.10390
3785.77202	0.10520
3783.84346	0.10700
3781.91489	0.10876
3779.98633	0.11012
3778.05776	0.11155
3776.12920	0.11317
3774.20063	0.11489
3772.27207	0.11664
3770.34351	0.11816
3768.41494	0.11964
3766.48638	0.12130
3764.55781	0.12334
3762.62925	0.12549
3760.70068	0.12744
3758.77212	0.12977
3756.84355	0.13241
3754.91499	0.13413
3752.98643	0.13545
3751.05786	0.13808
3749.12930	0.14230
3747.20073	0.14518
3745.27217	0.14683
3743.34360	0.15050
3741.41504	0.15554
3739.48647	0.15907
3737.55791	0.16236
3735.62935	0.16714
3733.70078	0.17339
3731.77222	0.17894
3729.84365	0.18331
3727.91509	0.18722
3725.98652	0.19212
3724.05796	0.19871
3722.12939	0.20569
3720.20083	0.21266
3718.27227	0.22001
3716.34370	0.22734
3714.41514	0.23445
3712.48657	0.24334
3710.55801	0.25636
3708.62944	0.27075
3706.70088	0.28304
3704.77231	0.29477
3702.84375	0.30809
3700.91519	0.32509
3698.98662	0.34403
3697.05806	0.36210
3695.12949	0.38070
3693.20093	0.39979
3691.27236	0.41995
3689.34380	0.44665
3687.41523	0.48168
3685.48667	0.51349
3683.55811	0.54054
3681.62954	0.56886
3679.70098	0.60013
3677.77241	0.63239
3675.84385	0.66976
3673.91528	0.72130
3671.98672	0.76558
3670.05815	0.80512
3668.12959	0.85876
3666.20103	0.90806
3664.27246	0.94915
3662.34390	0.99305
3660.41533	1.04044
3658.48677	1.08659
3656.55820	1.13494
3654.62964	1.18917
3652.70107	1.23474
3650.77251	1.27323
3648.84395	1.32664
3646.91538	1.39582
3644.98682	1.44879
3643.05825	1.48889
3641.12969	1.52910
3639.20112	1.57326
3637.27256	1.61723
3635.34399	1.65930
3633.41543	1.70159
3631.48687	1.74197
3629.55830	1.78276
3627.62974	1.83597
3625.70117	1.88670
3623.77261	1.92128
3621.84404	1.95378
3619.91548	1.99046
3617.98691	2.03536
3616.05835	2.07946
3614.12979	2.11638
3612.20122	2.15550
3610.27266	2.19479
3608.34409	2.23360
3606.41553	2.27567
3604.48696	2.31551
3602.55840	2.35005
3600.62983	2.38632
3598.70127	2.42661
3596.77271	2.46715
3594.84414	2.50867
3592.91558	2.55125
3590.98701	2.59037
3589.05845	2.62591
3587.12988	2.66891
3585.20132	2.71741
3583.27275	2.75785
3581.34419	2.79483
3579.41562	2.83498
3577.48706	2.87702
3575.55850	2.91894
3573.62993	2.96211
3571.70137	3.00343
3569.77280	3.04169
3567.84424	3.08325
3565.91567	3.13628
3563.98711	3.18860
3562.05854	3.23085
3560.12998	3.27166
3558.20142	3.31516
3556.27285	3.36046
3554.34429	3.40511
3552.41572	3.45211
3550.48716	3.50088
3548.55859	3.54555
3546.63003	3.58817
3544.70146	3.63540
3542.77290	3.68460
3540.84434	3.73205
3538.91577	3.77997
3536.98721	3.82790
3535.05864	3.87550
3533.13008	3.92251
3531.20151	3.97009
3529.27295	4.01759
3527.34438	4.06572
3525.41582	4.11451
3523.48726	4.16372
3521.55869	4.21416
3519.63013	4.26170
3517.70156	4.30854
3515.77300	4.35600
3513.84443	4.40161
3511.91587	4.44638
3509.98730	4.49394
3508.05874	4.54579
3506.13018	4.59668
3504.20161	4.64357
3502.27305	4.68992
3500.34448	4.73574
3498.41592	4.77708
3496.48735	4.82267
3494.55879	4.88131
3492.63022	4.94163
3490.70166	4.99142
3488.77310	5.03508
3486.84453	5.08302
3484.91597	5.13501
3482.98740	5.18210
3481.05884	5.22336
3479.13027	5.26534
3477.20171	5.31248
3475.27314	5.36309
3473.34458	5.41675
3471.41602	5.47057
3469.48745	5.51785
3467.55889	5.56384
3465.63032	5.61682
3463.70176	5.67196
3461.77319	5.72152
3459.84463	5.77124
3457.91606	5.82435
3455.98750	5.87603
3454.05894	5.91995
3452.13037	5.95780
3450.20181	6.00107
3448.27324	6.05318
3446.34468	6.10843
3444.41611	6.16261
3442.48755	6.22657
3440.55898	6.28585
3438.63042	6.32461
3436.70186	6.35883
3434.77329	6.40035
3432.84473	6.44556
3430.91616	6.48029
3428.98760	6.52037
3427.05903	6.58927
3425.13047	6.67928
3423.20190	6.75381
3421.27334	6.79428
3419.34478	6.82377
3417.41621	6.86840
3415.48765	6.92011
3413.55908	6.96644
3411.63052	7.01641
3409.70195	7.05354
3407.77339	7.08790
3405.84482	7.14042
3403.91626	7.19873
3401.98770	7.24446
3400.05913	7.27999
3398.13057	7.30473
3396.20200	7.32602
3394.27344	7.37199
3392.34487	7.42717
3390.41631	7.48465
3388.48774	7.52849
3386.55918	7.56957
3384.63062	7.60788
3382.70205	7.60857
3380.77349	7.62708
3378.84492	7.70134
3376.91636	7.76915
3374.98779	7.76781
3373.05923	7.74703
3371.13066	7.77124
3369.20210	7.83957
3367.27354	7.87981
3365.34497	7.90807
3363.41641	7.97060
3361.48784	7.97081
3359.55928	7.90416
3357.63071	7.85436
3355.70215	7.86192
3353.77358	7.92403
3351.84502	8.01239
3349.91646	8.07682
3347.98789	8.09054
3346.05933	8.06389
3344.13076	8.05580
3342.20220	8.09907
3340.27363	8.14191
3338.34507	8.16518
3336.41650	8.11390
3334.48794	8.01646
3332.55937	7.97221
3330.63081	7.98558
3328.70225	8.00054
3326.77368	8.01794
3324.84512	8.10876
3322.91655	8.21737
3320.98799	8.24774
3319.05942	8.24339
3317.13086	8.24293
3315.20229	8.18510
3313.27373	8.10776
3311.34517	8.10161
3309.41660	8.15829
3307.48804	8.20405
3305.55947	8.19663
3303.63091	8.15838
3301.70234	8.08335
3299.77378	8.05050
3297.84521	8.11334
3295.91665	8.18805
3293.98809	8.20545
3292.05952	8.21500
3290.13096	8.27133
3288.20239	8.32080
3286.27383	8.31294
3284.34526	8.25942
3282.41670	8.21903
3280.48813	8.22592
3278.55957	8.26516
3276.63101	8.28883
3274.70244	8.28168
3272.77388	8.29831
3270.84531	8.32130
3268.91675	8.32743
3266.98818	8.34591
3265.05962	8.32614
3263.13105	8.24795
3261.20249	8.20693
3259.27393	8.20792
3257.34536	8.20520
3255.41680	8.22097
3253.48823	8.26552
3251.55967	8.29000
3249.63110	8.27234
3247.70254	8.25109
3245.77397	8.21157
3243.84541	8.12652
3241.91685	8.06137
3239.98828	8.07631
3238.05972	8.10563
3236.13115	8.08236
3234.20259	8.06107
3232.27402	8.12842
3230.34546	8.29106
3228.41689	8.39913
3226.48833	8.35450
3224.55977	8.28496
3222.63120	8.25273
3220.70264	8.20324
3218.77407	8.12531
3216.84551	8.02233
3214.91694	7.96111
3212.98838	7.99863
3211.05981	8.01560
3209.13125	7.92997
3207.20269	7.85285
3205.27412	7.86112
3203.34556	7.89880
3201.41699	7.90738
3199.48843	7.90625
3197.55986	7.89733
3195.63130	7.86467
3193.70273	7.80865
3191.77417	7.72565
3189.84561	7.63602
3187.91704	7.56137
3185.98848	7.51781
3184.05991	7.52404
3182.13135	7.51652
3180.20278	7.41842
3178.27422	7.29090
3176.34565	7.21558
3174.41709	7.18968
3172.48853	7.16361
3170.55996	7.10314
3168.63140	7.02856
3166.70283	6.97052
3164.77427	6.92140
3162.84570	6.85823
3160.91714	6.79692
3158.98857	6.74370
3157.06001	6.66493
3155.13145	6.57871
3153.20288	6.50719
3151.27432	6.43359
3149.34575	6.36185
3147.41719	6.30144
3145.48862	6.23478
3143.56006	6.15183
3141.63149	6.07924
3139.70293	6.01972
3137.77437	5.95070
3135.84580	5.87972
3133.91724	5.81417
3131.98867	5.74459
3130.06011	5.67676
3128.13154	5.61255
3126.20298	5.54056
3124.27441	5.46568
3122.34585	5.39736
3120.41729	5.33276
3118.48872	5.26206
3116.56016	5.18057
3114.63159	5.09373
3112.70303	5.01295
3110.77446	4.94544
3108.84590	4.88252
3106.91733	4.81477
3104.98877	4.74339
3103.06021	4.67165
3101.13164	4.60484
3099.20308	4.54098
3097.27451	4.47225
3095.34595	4.40431
3093.41738	4.34037
3091.48882	4.27443
3089.56025	4.20761
3087.63169	4.14163
3085.70312	4.07432
3083.77456	4.00580
3081.84600	3.93887
3079.91743	3.87352
3077.98887	3.80908
3076.06030	3.74808
3074.13174	3.69052
3072.20317	3.63236
3070.27461	3.57239
3068.34604	3.51347
3066.41748	3.45573
3064.48892	3.39872
3062.56035	3.34323
3060.63179	3.28812
3058.70322	3.23228
3056.77466	3.17653
3054.84609	3.12218
3052.91753	3.06896
3050.98896	3.01645
3049.06040	2.96479
3047.13184	2.91449
3045.20327	2.86586
3043.27471	2.81782
3041.34614	2.76938
3039.41758	2.72080
3037.48901	2.67270
3035.56045	2.62552
3033.63188	2.57992
3031.70332	2.53522
3029.77476	2.49050
3027.84619	2.44683
3025.91763	2.40409
3023.98906	2.36108
3022.06050	2.31835
3020.13193	2.27676
3018.20337	2.23642
3016.27480	2.19725
3014.34624	2.15853
3012.41768	2.11962
3010.48911	2.08098
3008.56055	2.04321
3006.63198	2.00615
3004.70342	1.96939
3002.77485	1.93329
3000.84629	1.89839
2998.91772	1.86452
2996.98916	1.83118
2995.06060	1.79811
2993.13203	1.76536
2991.20347	1.73288
2989.27490	1.70068
2987.34634	1.66897
2985.41777	1.63800
2983.48921	1.60768
2981.56064	1.57752
2979.63208	1.54776
2977.70352	1.51884
2975.77495	1.49048
2973.84639	1.46254
2971.91782	1.43517
2969.98926	1.40837
2968.06069	1.38207
2966.13213	1.35619
2964.20356	1.33074
2962.27500	1.30557
2960.34644	1.28067
2958.41787	1.25648
2956.48931	1.23305
2954.56074	1.21008
2952.63218	1.18724
2950.70361	1.16439
2948.77505	1.14202
2946.84648	1.12050
2944.91792	1.09966
2942.98936	1.07898
2941.06079	1.05824
2939.13223	1.03791
2937.20366	1.01806
2935.27510	0.99840
2933.34653	0.97948
2931.41797	0.96143
2929.48940	0.94344
2927.56084	0.92562
2925.63228	0.90857
2923.70371	0.89225
2921.77515	0.87621
2919.84658	0.86012
2917.91802	0.84433
2915.98945	0.82901
2914.06089	0.81368
2912.13232	0.79854
2910.20376	0.78409
2908.27520	0.77028
2906.34663	0.75662
2904.41807	0.74281
2902.48950	0.72920
2900.56094	0.71613
2898.63237	0.70372
2896.70381	0.69169
2894.77524	0.67954
2892.84668	0.66725
2890.91812	0.65536
2888.98955	0.64428
2887.06099	0.63335
2885.13242	0.62209
2883.20386	0.61077
2881.27529	0.59978
2879.34673	0.58937
2877.41816	0.57930
2875.48960	0.56935
2873.56104	0.55951
2871.63247	0.54968
2869.70391	0.53978
2867.77534	0.52996
2865.84678	0.52048
2863.91821	0.51139
2861.98965	0.50241
2860.06108	0.49344
2858.13252	0.48474
2856.20396	0.47666
2854.27539	0.46914
2852.34683	0.46161
2850.41826	0.45388
2848.48970	0.44633
2846.56113	0.43912
2844.63257	0.43211
2842.70400	0.42536
2840.77544	0.41906
2838.84687	0.41309
2836.91831	0.40720
2834.98975	0.40134
2833.06118	0.39555
2831.13262	0.38986
2829.20405	0.38417
2827.27549	0.37842
2825.34692	0.37273
2823.41836	0.36726
2821.48979	0.36187
2819.56123	0.35634
2817.63267	0.35072
2815.70410	0.34525
2813.77554	0.34002
2811.84697	0.33499
2809.91841	0.33016
2807.98984	0.32539
2806.06128	0.32046
2804.13271	0.31552
2802.20415	0.31096
2800.27559	0.30668
2798.34702	0.30232
2796.41846	0.29792
2794.48989	0.29372
2792.56133	0.28958
2790.63276	0.28539
2788.70420	0.28120
2786.77563	0.27704
2784.84707	0.27312
2782.91851	0.26944
2780.98994	0.26577
2779.06138	0.26215
2777.13281	0.25871
2775.20425	0.25544
2773.27568	0.25229
2771.34712	0.24909
2769.41855	0.24570
2767.48999	0.24232
2765.56143	0.23918
2763.63286	0.23616
2761.70430	0.23323
2759.77573	0.23040
2757.84717	0.22758
2755.91860	0.22476
2753.99004	0.22194
2752.06147	0.21909
2750.13291	0.21640
2748.20435	0.21403
2746.27578	0.21177
2744.34722	0.20939
2742.41865	0.20689
2740.49009	0.20438
2738.56152	0.20196
2736.63296	0.19968
2734.70439	0.19748
2732.77583	0.19530
2730.84727	0.19317
2728.91870	0.19113
2726.99014	0.18916
2725.06157	0.18730
2723.13301	0.18549
2721.20444	0.18367
2719.27588	0.18189
2717.34731	0.18023
2715.41875	0.17859
2713.49019	0.17693
2711.56162	0.17532
2709.63306	0.17380
2707.70449	0.17235
2705.77593	0.17097
2703.84736	0.16951
2701.91880	0.16796
2699.99023	0.16651
2698.06167	0.16519
2696.13311	0.16382
2694.20454	0.16246
2692.27598	0.16120
2690.34741	0.16008
2688.41885	0.15904
2686.49028	0.15794
2684.56172	0.15675
2682.63315	0.15560
2680.70459	0.15456
2678.77603	0.15367
2676.84746	0.15289
2674.91890	0.15210
2672.99033	0.15117
2671.06177	0.15020
2669.13320	0.14933
2667.20464	0.14860
2665.27607	0.14786
2663.34751	0.14703
2661.41895	0.14623
2659.49038	0.14552
2657.56182	0.14486
2655.63325	0.14417
2653.70469	0.14348
2651.77612	0.14301
2649.84756	0.14274
2647.91899	0.14243
2645.99043	0.14203
2644.06187	0.14157
2642.13330	0.14105
2640.20474	0.14054
2638.27617	0.14015
2636.34761	0.13988
2634.41904	0.13962
2632.49048	0.13933
2630.56191	0.13905
2628.63335	0.13879
2626.70479	0.13863
2624.77622	0.13866
2622.84766	0.13870
2620.91909	0.13848
2618.99053	0.13806
2617.06196	0.13775
2615.13340	0.13773
2613.20483	0.13782
2611.27627	0.13773
2609.34771	0.13763
2607.41914	0.13781
2605.49058	0.13809
2603.56201	0.13822
2601.63345	0.13831
2599.70488	0.13843
2597.77632	0.13858
2595.84775	0.13870
2593.91919	0.13884
2591.99062	0.13902
2590.06206	0.13927
2588.13350	0.13966
2586.20493	0.14000
2584.27637	0.14019
2582.34780	0.14046
2580.41924	0.14091
2578.49067	0.14139
2576.56211	0.14179
2574.63354	0.14219
2572.70498	0.14261
2570.77642	0.14304
2568.84785	0.14349
2566.91929	0.14393
2564.99072	0.14445
2563.06216	0.14510
2561.13359	0.14567
2559.20503	0.14609
2557.27646	0.14650
2555.34790	0.14704
2553.41934	0.14779
2551.49077	0.14857
2549.56221	0.14913
2547.63364	0.14965
2545.70508	0.15031
2543.77651	0.15092
2541.84795	0.15147
2539.91938	0.15213
2537.99082	0.15292
2536.06226	0.15380
2534.13369	0.15461
2532.20513	0.15535
2530.27656	0.15616
2528.34800	0.15700
2526.41943	0.15782
2524.49087	0.15861
2522.56230	0.15942
2520.63374	0.16030
2518.70518	0.16110
2516.77661	0.16180
2514.84805	0.16257
2512.91948	0.16350
2510.99092	0.16443
2509.06235	0.16529
2507.13379	0.16611
2505.20522	0.16700
2503.27666	0.16796
2501.34810	0.16892
2499.41953	0.16991
2497.49097	0.17081
2495.56240	0.17161
2493.63384	0.17245
2491.70527	0.17342
2489.77671	0.17441
2487.84814	0.17530
2485.91958	0.17614
2483.99102	0.17708
2482.06245	0.17810
2480.13389	0.17911
2478.20532	0.18011
2476.27676	0.18100
2474.34819	0.18188
2472.41963	0.18287
2470.49106	0.18388
2468.56250	0.18492
2466.63394	0.18598
2464.70537	0.18695
2462.77681	0.18793
2460.84824	0.18897
2458.91968	0.18995
2456.99111	0.19088
2455.06255	0.19194
2453.13398	0.19312
2451.20542	0.19430
2449.27686	0.19544
2447.34829	0.19658
2445.41973	0.19763
2443.49116	0.19858
2441.56260	0.19955
2439.63403	0.20057
2437.70547	0.20166
2435.77690	0.20270
2433.84834	0.20372
2431.91978	0.20494
2429.99121	0.20626
2428.06265	0.20739
2426.13408	0.20839
2424.20552	0.20945
2422.27695	0.21057
2420.34839	0.21168
2418.41982	0.21280
2416.49126	0.21399
2414.56270	0.21523
2412.63413	0.21644
2410.70557	0.21762
2408.77700	0.21883
2406.84844	0.22009
2404.91987	0.22139
2402.99131	0.22263
2401.06274	0.22383
2399.13418	0.22513
2397.20562	0.22648
2395.27705	0.22776
2393.34849	0.22900
2391.41992	0.23027
2389.49136	0.23155
2387.56279	0.23295
2385.63423	0.23464
2383.70566	0.23668
2381.77710	0.23901
2379.84854	0.24155
2377.91997	0.24422
2375.99141	0.24718
2374.06284	0.25050
2372.13428	0.25382
2370.20571	0.25701
2368.27715	0.26026
2366.34858	0.26351
2364.42002	0.26664
2362.49146	0.26955
2360.56289	0.27175
2358.63433	0.27301
2356.70576	0.27411
2354.77720	0.27512
2352.84863	0.27491
2350.92007	0.27366
2348.99150	0.27301
2347.06294	0.27383
2345.13437	0.27649
2343.20581	0.28014
2341.27725	0.28260
2339.34868	0.28382
2337.42012	0.28528
2335.49155	0.28722
2333.56299	0.28872
2331.63442	0.29018
2329.70586	0.29220
2327.77729	0.29392
2325.84873	0.29466
2323.92017	0.29495
2321.99160	0.29537
2320.06304	0.29588
2318.13447	0.29654
2316.20591	0.29742
2314.27734	0.29861
2312.34878	0.30013
2310.42021	0.30169
2308.49165	0.30300
2306.56309	0.30410
2304.63452	0.30514
2302.70596	0.30635
2300.77739	0.30782
2298.84883	0.30929
2296.92026	0.31071
2294.99170	0.31227
2293.06313	0.31395
2291.13457	0.31560
2289.20601	0.31717
2287.27744	0.31874
2285.34888	0.32049
2283.42031	0.32246
2281.49175	0.32449
2279.56318	0.32651
2277.63462	0.32854
2275.70605	0.33066
2273.77749	0.33280
2271.84893	0.33491
2269.92036	0.33698
2267.99180	0.33904
2266.06323	0.34110
2264.13467	0.34319
2262.20610	0.34534
2260.27754	0.34752
2258.34897	0.34964
2256.42041	0.35170
2254.49185	0.35383
2252.56328	0.35602
2250.63472	0.35815
2248.70615	0.36024
2246.77759	0.36237
2244.84902	0.36454
2242.92046	0.36680
2240.99189	0.36914
2239.06333	0.37146
2237.13477	0.37377
2235.20620	0.37599
2233.27764	0.37808
2231.34907	0.38024
2229.42051	0.38255
2227.49194	0.38477
2225.56338	0.38682
2223.63481	0.38893
2221.70625	0.39129
2219.77769	0.39365
2217.84912	0.39584
2215.92056	0.39796
2213.99199	0.40015
2212.06343	0.40234
2210.13486	0.40448
2208.20630	0.40666
2206.27773	0.40881
2204.34917	0.41090
2202.42061	0.41299
2200.49204	0.41506
2198.56348	0.41703
2196.63491	0.41902
2194.70635	0.42104
2192.77778	0.42299
2190.84922	0.42486
2188.92065	0.42672
2186.99209	0.42856
2185.06353	0.43043
2183.13496	0.43234
2181.20640	0.43413
2179.27783	0.43571
2177.34927	0.43724
2175.42070	0.43883
2173.49214	0.44045
2171.56357	0.44198
2169.63501	0.44338
2167.70645	0.44475
2165.77788	0.44605
2163.84932	0.44725
2161.92075	0.44848
2159.99219	0.44967
2158.06362	0.45060
2156.13506	0.45139
2154.20649	0.45229
2152.27793	0.45327
2150.34937	0.45407
2148.42080	0.45467
2146.49224	0.45522
2144.56367	0.45569
2142.63511	0.45601
2140.70654	0.45639
2138.77798	0.45681
2136.84941	0.45712
2134.92085	0.45733
2132.99229	0.45739
2131.06372	0.45733
2129.13516	0.45724
2127.20659	0.45705
2125.27803	0.45665
2123.34946	0.45609
2121.42090	0.45547
2119.49233	0.45490
2117.56377	0.45440
2115.63521	0.45376
2113.70664	0.45297
2111.77808	0.45213
2109.84951	0.45124
2107.92095	0.45019
2105.99238	0.44900
2104.06382	0.44776
2102.13525	0.44655
2100.20669	0.44528
2098.27812	0.44381
2096.34956	0.44233
2094.42100	0.44096
2092.49243	0.43944
2090.56387	0.43770
2088.63530	0.43589
2086.70674	0.43418
2084.77817	0.43248
2082.84961	0.43064
2080.92104	0.42860
2078.99248	0.42656
2077.06392	0.42455
2075.13535	0.42237
2073.20679	0.42008
2071.27822	0.41789
2069.34966	0.41567
2067.42109	0.41332
2065.49253	0.41103
2063.56396	0.40880
2061.63540	0.40647
2059.70684	0.40398
2057.77827	0.40134
2055.84971	0.39874
2053.92114	0.39627
2051.99258	0.39379
2050.06401	0.39120
2048.13545	0.38857
2046.20688	0.38593
2044.27832	0.38326
2042.34976	0.38050
2040.42119	0.37782
2038.49263	0.37523
2036.56406	0.37254
2034.63550	0.36968
2032.70693	0.36670
2030.77837	0.36377
2028.84980	0.36102
2026.92124	0.35840
2024.99268	0.35572
2023.06411	0.35295
2021.13555	0.35018
2019.20698	0.34739
2017.27842	0.34460
2015.34985	0.34190
2013.42129	0.33926
2011.49272	0.33657
2009.56416	0.33387
2007.63560	0.33114
2005.70703	0.32839
2003.77847	0.32569
2001.84990	0.32302
1999.92134	0.32034
1997.99277	0.31768
1996.06421	0.31510
1994.13564	0.31255
1992.20708	0.30998
1990.27852	0.30743
1988.34995	0.30496
1986.42139	0.30257
1984.49282	0.30024
1982.56426	0.29787
1980.63569	0.29543
1978.70713	0.29301
1976.77856	0.29073
1974.85000	0.28856
1972.92144	0.28636
1970.99287	0.28424
1969.06431	0.28224
1967.13574	0.28028
1965.20718	0.27830
1963.27861	0.27629
1961.35005	0.27426
1959.42148	0.27230
1957.49292	0.27046
1955.56436	0.26864
1953.63579	0.26684
1951.70723	0.26509
1949.77866	0.26341
1947.85010	0.26185
1945.92153	0.26044
1943.99297	0.25897
1942.06440	0.25734
1940.13584	0.25575
1938.20728	0.25438
1936.27871	0.25313
1934.35015	0.25186
1932.42158	0.25062
1930.49302	0.24948
1928.56445	0.24837
1926.63589	0.24723
1924.70732	0.24613
1922.77876	0.24517
1920.85020	0.24425
1918.92163	0.24331
1916.99307	0.24242
1915.06450	0.24149
1913.13594	0.24050
1911.20737	0.23966
1909.27881	0.23898
1907.35024	0.23838
1905.42168	0.23775
1903.49312	0.23710
1901.56455	0.23649
1899.63599	0.23596
1897.70742	0.23556
1895.77886	0.23522
1893.85029	0.23490
1891.92173	0.23452
1889.99316	0.23427
1888.06460	0.23407
1886.13604	0.23376
1884.20747	0.23346
1882.27891	0.23330
1880.35034	0.23319
1878.42178	0.23305
1876.49321	0.23296
1874.56465	0.23296
1872.63608	0.23309
1870.70752	0.23324
1868.77896	0.23356
1866.85039	0.23400
1864.92183	0.23428
1862.99326	0.23445
1861.06470	0.23468
1859.13613	0.23507
1857.20757	0.23546
1855.27900	0.23586
1853.35044	0.23623
1851.42187	0.23662
1849.49331	0.23706
1847.56475	0.23766
1845.63618	0.23849
1843.70762	0.23951
1841.77905	0.24037
1839.85049	0.24087
1837.92192	0.24160
1835.99336	0.24257
1834.06479	0.24353
1832.13623	0.24439
1830.20767	0.24559
1828.27910	0.24707
1826.35054	0.24826
1824.42197	0.24957
1822.49341	0.25097
1820.56484	0.25234
1818.63628	0.25373
1816.70771	0.25529
1814.77915	0.25688
1812.85059	0.25857
1810.92202	0.26056
1808.99346	0.26272
1807.06489	0.26486
1805.13633	0.26684
1803.20776	0.26889
1801.27920	0.27114
1799.35063	0.27387
1797.42207	0.27657
1795.49351	0.27902
1793.56494	0.28160
1791.63638	0.28505
1789.70781	0.28876
1787.77925	0.29166
1785.85068	0.29486
1783.92212	0.29856
1781.99355	0.30250
1780.06499	0.30674
1778.13643	0.31119
1776.20786	0.31518
1774.27930	0.31913
1772.35073	0.32464
1770.42217	0.33129
1768.49360	0.33711
1766.56504	0.34248
1764.63647	0.34777
1762.70791	0.35342
1760.77935	0.36069
1758.85078	0.36778
1756.92222	0.37500
1754.99365	0.38296
1753.06509	0.39007
1751.13652	0.39811
1749.20796	0.40831
1747.27939	0.41887
1745.35083	0.42847
1743.42227	0.43852
1741.49370	0.44941
1739.56514	0.46211
1737.63657	0.47484
1735.70801	0.48575
1733.77944	0.50183
1731.85088	0.52156
1729.92231	0.53764
1727.99375	0.55394
1726.06519	0.57113
1724.13662	0.58954
1722.20806	0.60928
1720.27949	0.62737
1718.35093	0.64840
1716.42236	0.68010
1714.49380	0.71105
1712.56523	0.73628
1710.63667	0.76043
1708.70811	0.78594
1706.77954	0.81453
1704.85098	0.84867
1702.92241	0.87918
1700.99385	0.90886
1699.06528	0.95285
1697.13672	0.99342
1695.20815	1.03506
1693.27959	1.07537
1691.35103	1.10699
1689.42246	1.14266
1687.49390	1.18003
1685.56533	1.21560
1683.63677	1.27044
1681.70820	1.32823
1679.77964	1.36543
1677.85107	1.40054
1675.92251	1.44056
1673.99395	1.48957
1672.06538	1.53223
1670.13682	1.57363
1668.20825	1.62869
1666.27969	1.67260
1664.35112	1.70732
1662.42256	1.74988
1660.49399	1.79846
1658.56543	1.83639
1656.63687	1.86725
1654.70830	1.89682
1652.77974	1.94871
1650.85117	2.00144
1648.92261	2.02136
1646.99404	2.04756
1645.06548	2.08250
1643.13691	2.10890
1641.20835	2.12590
1639.27979	2.13917
1637.35122	2.14703
1635.42266	2.14889
1633.49409	2.14509
1631.56553	2.13603
1629.63696	2.12309
1627.70840	2.09989
1625.77983	2.07323
1623.85127	2.04024
1621.92271	1.99839
1619.99414	1.95952
1618.06558	1.91956
1616.13701	1.86129
1614.20845	1.80252
1612.27988	1.75849
1610.35132	1.71189
1608.42275	1.65991
1606.49419	1.60805
1604.56562	1.56024
1602.63706	1.51350
1600.70850	1.46737
1598.77993	1.42479
1596.85137	1.38445
1594.92280	1.34509
1592.99424	1.30710
1591.06567	1.27215
1589.13711	1.23878
1587.20854	1.20683
1585.27998	1.17693
1583.35142	1.14886
1581.42285	1.12281
1579.49429	1.09987
1577.56572	1.07827
1575.63716	1.05129
1573.70859	1.02751
1571.78003	1.01152
1569.85146	0.99361
1567.92290	0.97312
1565.99434	0.95684
1564.06577	0.94255
1562.13721	0.93019
1560.20864	0.91899
1558.28008	0.89938
1556.35151	0.88239
1554.42295	0.87240
1552.49438	0.86215
1550.56582	0.85166
1548.63726	0.84105
1546.70869	0.83196
1544.78013	0.82371
1542.85156	0.81503
1540.92300	0.80512
1538.99443	0.79323
1537.06587	0.78541
1535.13730	0.77986
1533.20874	0.77270
1531.28018	0.76515
1529.35161	0.75942
1527.42305	0.75363
1525.49448	0.74734
1523.56592	0.74149
1521.63735	0.73524
1519.70879	0.72862
1517.78022	0.72325
1515.85166	0.71821
1513.92310	0.71348
1511.99453	0.70922
1510.06597	0.70513
1508.13740	0.70127
1506.20884	0.69620
1504.28027	0.69196
1502.35171	0.68898
1500.42314	0.68587
1498.49458	0.68259
1496.56602	0.67922
1494.63745	0.67598
1492.70889	0.67308
1490.78032	0.67027
1488.85176	0.66717
1486.92319	0.66411
1484.99463	0.66111
1483.06606	0.65816
1481.13750	0.65527
1479.20894	0.65244
1477.28037	0.64962
1475.35181	0.64675
1473.42324	0.64382
1471.49468	0.64047
1469.56611	0.63746
1467.63755	0.63501
1465.70898	0.63267
1463.78042	0.63024
1461.85186	0.62794
1459.92329	0.62590
1457.99473	0.62370
1456.06616	0.62123
1454.13760	0.61924
1452.20903	0.61749
1450.28047	0.61570
1448.35190	0.61397
1446.42334	0.61230
1444.49478	0.61081
1442.56621	0.60948
1440.63765	0.60808
1438.70908	0.60661
1436.78052	0.60513
1434.85195	0.60376
1432.92339	0.60243
1430.99482	0.60104
1429.06626	0.59950
1427.13770	0.59787
1425.20913	0.59625
1423.28057	0.59461
1421.35200	0.59303
1419.42344	0.59153
1417.49487	0.59012
1415.56631	0.58867
1413.63774	0.58717
1411.70918	0.58573
1409.78062	0.58440
1407.85205	0.58314
1405.92349	0.58194
1403.99492	0.58064
1402.06636	0.57916
1400.13779	0.57773
1398.20923	0.57640
1396.28066	0.57515
1394.35210	0.57387
1392.42354	0.57254
1390.49497	0.57121
1388.56641	0.57000
1386.63784	0.56891
1384.70928	0.56782
1382.78071	0.56673
1380.85215	0.56566
1378.92358	0.56461
1376.99502	0.56359
1375.06646	0.56268
1373.13789	0.56182
1371.20933	0.56088
1369.28076	0.55978
1367.35220	0.55861
1365.42363	0.55755
1363.49507	0.55666
1361.56650	0.55581
1359.63794	0.55494
1357.70937	0.55412
1355.78081	0.55339
1353.85225	0.55266
1351.92368	0.55182
1349.99512	0.55087
1348.06655	0.54991
1346.13799	0.54909
1344.20942	0.54840
1342.28086	0.54771
1340.35229	0.54697
1338.42373	0.54614
1336.49517	0.54524
1334.56660	0.54436
1332.63804	0.54356
1330.70947	0.54275
1328.78091	0.54195
1326.85234	0.54113
1324.92378	0.54030
1322.99521	0.53949
1321.06665	0.53865
1319.13809	0.53769
1317.20952	0.53672
1315.28096	0.53593
1313.35239	0.53528
1311.42383	0.53457
1309.49526	0.53380
1307.56670	0.53310
1305.63813	0.53236
1303.70957	0.53154
1301.78101	0.53083
1299.85244	0.53025
1297.92388	0.52968
1295.99531	0.52908
1294.06675	0.52838
1292.13818	0.52764
1290.20962	0.52706
1288.28105	0.52658
1286.35249	0.52613
1284.42393	0.52581
1282.49536	0.52549
1280.56680	0.52505
1278.63823	0.52460
1276.70967	0.52416
1274.78110	0.52363
1272.85254	0.52308
1270.92397	0.52257
1268.99541	0.52205
1267.06685	0.52155
1265.13828	0.52114
1263.20972	0.52075
1261.28115	0.52034
1259.35259	0.51998
1257.42402	0.51961
1255.49546	0.51929
1253.56689	0.51907
1251.63833	0.51884
1249.70977	0.51863
1247.78120	0.51846
1245.85264	0.51821
1243.92407	0.51778
1241.99551	0.51728
1240.06694	0.51691
1238.13838	0.51660
1236.20981	0.51605
1234.28125	0.51535
1232.35269	0.51486
1230.42412	0.51451
1228.49556	0.51398
1226.56699	0.51333
1224.63843	0.51278
1222.70986	0.51227
1220.78130	0.51165
1218.85273	0.51097
1216.92417	0.51032
1214.99561	0.50972
1213.06704	0.50920
1211.13848	0.50871
1209.20991	0.50810
1207.28135	0.50741
1205.35278	0.50680
1203.42422	0.50626
1201.49565	0.50570
1199.56709	0.50517
1197.63853	0.50469
1195.70996	0.50424
1193.78140	0.50385
1191.85283	0.50341
1189.92427	0.50288
1187.99570	0.50250
1186.06714	0.50235
1184.13857	0.50222
1182.21001	0.50213
1180.28145	0.50222
1178.35288	0.50241
1176.42432	0.50271
1174.49575	0.50306
1172.56719	0.50340
1170.63862	0.50375
1168.71006	0.50415
1166.78149	0.50449
1164.85293	0.50463
1162.92437	0.50448
1160.99580	0.50410
1159.06724	0.50353
1157.13867	0.50282
1155.21011	0.50203
1153.28154	0.50109
1151.35298	0.49974
1149.42441	0.49801
1147.49585	0.49615
1145.56729	0.49416
1143.63872	0.49190
1141.71016	0.48944
1139.78159	0.48702
1137.85303	0.48477
1135.92446	0.48262
1133.99590	0.48048
1132.06733	0.47845
1130.13877	0.47664
1128.21021	0.47508
1126.28164	0.47368
1124.35308	0.47230
1122.42451	0.47100
1120.49595	0.47009
1118.56738	0.46974
1116.63882	0.46971
1114.71025	0.46976
1112.78169	0.46986
1110.85312	0.47013
1108.92456	0.47064
1106.99600	0.47139
1105.06743	0.47247
1103.13887	0.47393
1101.21030	0.47581
1099.28174	0.47815
1097.35317	0.48089
1095.42461	0.48391
1093.49604	0.48718
1091.56748	0.49101
1089.63892	0.49562
1087.71035	0.50089
1085.78179	0.50675
1083.85322	0.51305
1081.92466	0.51924
1079.99609	0.52472
1078.06753	0.52888
1076.13896	0.53063
1074.21040	0.52911
1072.28184	0.52486
1070.35327	0.51917
1068.42471	0.51278
1066.49614	0.50626
1064.56758	0.50011
1062.63901	0.49452
1060.71045	0.48953
1058.78188	0.48517
1056.85332	0.48143
1054.92476	0.47816
1052.99619	0.47521
1051.06763	0.47273
1049.13906	0.47091
1047.21050	0.46933
1045.28193	0.46761
1043.35337	0.46596
1041.42480	0.46488
1039.49624	0.46440
1037.56768	0.46397
1035.63911	0.46345
1033.71055	0.46330
1031.78198	0.46369
1029.85342	0.46435
1027.92485	0.46491
1025.99629	0.46537
1024.06772	0.46612
1022.13916	0.46720
1020.21060	0.46838
1018.28203	0.46954
1016.35347	0.47070
1014.42490	0.47182
1012.49634	0.47292
1010.56777	0.47432
1008.63921	0.47613
1006.71064	0.47811
1004.78208	0.48030
1002.85352	0.48286
1000.92495	0.48567
998.99639	0.48875
997.06782	0.49222
995.13926	0.49585
993.21069	0.49938
991.28213	0.50265
989.35356	0.50547
987.42500	0.50762
985.49644	0.50912
983.56787	0.51031
981.63931	0.51163
979.71074	0.51344
977.78218	0.51588
975.85361	0.51861
973.92505	0.52117
971.99648	0.52393
970.06792	0.52747
968.13936	0.53170
966.21079	0.53625
964.28223	0.54078
962.35366	0.54541
960.42510	0.55057
958.49653	0.55623
956.56797	0.56215
954.63940	0.56818
952.71084	0.57417
950.78228	0.58028
948.85371	0.58678
946.92515	0.59338
944.99658	0.59972
943.06802	0.60582
941.13945	0.61189
939.21089	0.61801
937.28232	0.62407
935.35376	0.62999
933.42520	0.63572
931.49663	0.64109
929.56807	0.64626
927.63950	0.65197
925.71094	0.65844
923.78237	0.66480
921.85381	0.67063
919.92524	0.67716
917.99668	0.68496
916.06812	0.69251
914.13955	0.69925
912.21099	0.70657
910.28242	0.71530
908.35386	0.72451
906.42529	0.73297
904.49673	0.74077
902.56816	0.74872
900.63960	0.75767
898.71104	0.76787
896.78247	0.77840
894.85391	0.78819
892.92534	0.79766
890.99678	0.80787
889.06821	0.81860
887.13965	0.82913
885.21108	0.83981
883.28252	0.85158
881.35396	0.86433
879.42539	0.87708
877.49683	0.88893
875.56826	0.89995
873.63970	0.91159
871.71113	0.92412
869.78257	0.93536
867.85400	0.94527
865.92544	0.95573
863.99687	0.96684
862.06831	0.97886
860.13975	0.99162
858.21118	1.00277
856.28262	1.01184
854.35405	1.02127
852.42549	1.03288
850.49692	1.04647
848.56836	1.05986
846.63979	1.07134
844.71123	1.08111
842.78267	1.08957
840.85410	1.09856
838.92554	1.11104
836.99697	1.12580
835.06841	1.13845
833.13984	1.14953
831.21128	1.16006
829.28271	1.16946
827.35415	1.17921
825.42559	1.18770
823.49702	1.19843
821.56846	1.21428
819.63989	1.22675
817.71133	1.23296
815.78276	1.24007
813.85420	1.25347
811.92563	1.26605
809.99707	1.26234
808.06851	1.25419
806.13994	1.26916
804.21138	1.30220
802.28281	1.32726
800.35425	1.33993
798.42568	1.36156
796.49712	1.38749
794.56855	1.39167
792.63999	1.38894
790.71143	1.40190
788.78286	1.41283
786.85430	1.37944
784.92573	1.35508
782.99717	1.41860
781.06860	1.49728
779.14004	1.41535
777.21147	1.32588
775.28291	1.35681
773.35435	1.46130
771.42578	1.51451
769.49722	1.48278
767.56865	1.48605
765.64009	1.49447
763.71152	1.45112
761.78296	1.43479
759.85439	1.36797
757.92583	1.28303
755.99727	1.25076
754.06870	1.20683
752.14014	1.17375
750.21157	1.19553
748.28301	1.18713
746.35444	1.10881
744.42588	1.02794
742.49731	0.98943
740.56875	0.99461
738.64019	0.92701
736.71162	0.77308
734.78306	0.67772
732.85449	0.66233
730.92593	0.66670
728.99736	0.63503
727.06880	0.64638
725.14023	0.79179
723.21167	0.62247
721.28311	0.32215
719.35454	0.20663
717.42598	0.27847
715.49741	0.48314
713.56885	0.63577
711.64028	0.44902
709.71172	0.23863
707.78315	0.19745
705.85459	0.24478
703.92603	0.37646
701.99746	0.50530
700.06890	0.40827
698.14033	0.31048
696.21177	0.27722
694.28320	0.24304
692.35464	0.21226
690.42607	0.22204
688.49751	0.27017
686.56895	0.34489
684.64038	0.40143
682.71182	0.36013
680.78325	0.33997
678.85469	0.37166
676.92612	0.37986
674.99756	0.38489
673.06899	0.57646
671.14043	1.06902
669.21187	0.80241
667.28330	0.82788
665.35474	0.92110
663.42617	0.62092
661.49761	0.48889
659.56904	0.40060
657.64048	0.32457
655.71191	0.28173
653.78335	0.25585
651.85479	0.28549
649.92622	0.41582
647.99766	0.49980
646.06909	0.30752
644.14053	0.24320
642.21196	0.34515
640.28340	0.40396
638.35483	0.30180
636.42627	0.20660
634.49771	0.20070
632.56914	0.19671
630.64058	0.15365
628.71201	0.15560
626.78345	0.22909
624.85488	0.31148
622.92632	0.39119
620.99775	0.56679
619.06919	0.78269
617.14062	0.64435
615.21206	0.46338
613.28350	0.30615
611.35493	0.19844
609.42637	0.16749
607.49780	0.22093
605.56924	0.28215
603.64067	0.25761
601.71211	0.20603
599.78354	0.20314
597.85498	0.26561
595.92642	0.40705
593.99785	0.61148
592.06929	0.57237
590.14072	0.37147
588.21216	0.29806
586.28359	0.34650
584.35503	0.38003
582.42646	0.30851
580.49790	0.21735
578.56934	0.15905
576.64077	0.17410
574.71221	0.27087
572.78364	0.33914
570.85508	0.27993
568.92651	0.23520
566.99795	0.28771
565.06938	0.35851
563.14082	0.34239
561.21226	0.25754
559.28369	0.24781
557.35513	0.30360
555.42656	0.27401
553.49800	0.18285
551.56943	0.18092
549.64087	0.29894
547.71230	0.31139
545.78374	0.24523
543.85518	0.22908
541.92661	0.24433
539.99805	0.23243
538.06948	0.19024
536.14092	0.14256
534.21235	0.12797
532.28379	0.16376
530.35522	0.26509
528.42666	0.36532
526.49810	0.33678
524.56953	0.26694
522.64097	0.20808
520.71240	0.18521
518.78384	0.23788
516.85527	0.34502
514.92671	0.44243
512.99814	0.43830
511.06958	0.26939
509.14102	0.16612
507.21245	0.16913
505.28389	0.19923
503.35532	0.17507
501.42676	0.13276
499.49819	0.12630
