3997.91411	0.07889
3995.98555	0.07920
3994.05698	0.07987
3992.12842	0.08020
3990.19985	0.08015
3988.27129	0.08010
3986.34272	0.08003
3984.41416	0.08016
3982.48560	0.08065
3980.55703	0.08104
3978.62847	0.08124
3976.69990	0.08149
3974.77134	0.08192
3972.84277	0.08235
3970.91421	0.08253
3968.98564	0.08264
3967.05708	0.08266
3965.12852	0.08259
3963.19995	0.08320
3961.27139	0.08429
3959.34282	0.08466
3957.41426	0.08425
3955.48569	0.08390
3953.55713	0.08432
3951.62856	0.08546
3949.70000	0.08679
3947.77144	0.08741
3945.84287	0.08685
3943.91431	0.08658
3941.98574	0.08695
3940.05718	0.08606
3938.12861	0.08423
3936.20005	0.08343
3934.27148	0.08433
3932.34292	0.08638
3930.41436	0.08792
3928.48579	0.08733
3926.55723	0.08636
3924.62866	0.08689
3922.70010	0.08725
3920.77153	0.08661
3918.84297	0.08692
3916.91440	0.08789
3914.98584	0.08708
3913.05728	0.08455
3911.12871	0.08249
3909.20015	0.08198
3907.27158	0.08381
3905.34302	0.08840
3903.41445	0.09363
3901.48589	0.09593
3899.55732	0.09498
3897.62876	0.09140
3895.70020	0.08733
3893.77163	0.08643
3891.84307	0.08878
3889.91450	0.08982
3887.98594	0.08828
3886.05737	0.08866
3884.12881	0.09070
3882.20024	0.09149
3880.27168	0.09189
3878.34312	0.09060
3876.41455	0.08833
3874.48599	0.08916
3872.55742	0.09270
3870.62886	0.09623
3868.70029	0.09764
3866.77173	0.09621
3864.84316	0.09591
3862.91460	0.09677
3860.98604	0.09480
3859.05747	0.09216
3857.12891	0.09278
3855.20034	0.09752
3853.27178	0.10580
3851.34321	0.10817
3849.41465	0.10061
3847.48608	0.09419
3845.55752	0.09245
3843.62896	0.09508
3841.70039	0.10017
3839.77183	0.10542
3837.84326	0.10874
3835.91470	0.10765
3833.98613	0.10446
3832.05757	0.10223
3830.12900	0.10061
3828.20044	0.09985
3826.27187	0.10081
3824.34331	0.10272
3822.41475	0.10635
3820.48618	0.11244
3818.55762	0.11476
3816.62905	0.11322
3814.70049	0.11076
3812.77192	0.10629
3810.84336	0.10325
3808.91479	0.10443
3806.98623	0.10931
3805.05767	0.11399
3803.12910	0.11714
3801.20054	0.12096
3799.27197	0.12197
3797.34341	0.11995
3795.41484	0.11802
3793.48628	0.11531
3791.55771	0.11339
3789.62915	0.11378
3787.70059	0.11562
3785.77202	0.11834
3783.84346	0.12105
3781.91489	0.12295
3779.98633	0.12541
3778.05776	0.12756
3776.12920	0.12681
3774.20063	0.12587
3772.27207	0.12768
3770.34351	0.13230
3768.41494	0.13707
3766.48638	0.13939
3764.55781	0.14073
3762.62925	0.14191
3760.70068	0.14438
3758.77212	0.14908
3756.84355	0.15291
3754.91499	0.15513
3752.98643	0.15970
3751.05786	0.16880
3749.12930	0.17733
3747.20073	0.17946
3745.27217	0.18122
3743.34360	0.18621
3741.41504	0.19084
3739.48647	0.19535
3737.55791	0.20384
3735.62935	0.21780
3733.70078	0.23090
3731.77222	0.23571
3729.84365	0.23780
3727.91509	0.24198
3725.98652	0.24865
3724.05796	0.25504
3722.12939	0.25825
3720.20083	0.25843
3718.27227	0.25660
3716.34370	0.25548
3714.41514	0.25922
3712.48657	0.27224
3710.55801	0.29486
3708.62944	0.31381
3706.70088	0.32353
3704.77231	0.33282
3702.84375	0.34592
3700.91519	0.36262
3698.98662	0.37910
3697.05806	0.39421
3695.12949	0.41113
3693.20093	0.43054
3691.27236	0.45315
3689.34380	0.48125
3687.41523	0.51117
3685.48667	0.53507
3683.55811	0.55646
3681.62954	0.58194
3679.70098	0.61378
3677.77241	0.64976
3675.84385	0.69274
3673.91528	0.74611
3671.98672	0.78660
3670.05815	0.82362
3668.12959	0.87373
3666.20103	0.91665
3664.27246	0.95316
3662.34390	0.99520
3660.41533	1.04224
3658.48677	1.08953
3656.55820	1.14075
3654.62964	1.19713
3652.70107	1.24392
3650.77251	1.28762
3648.84395	1.34962
3646.91538	1.41754
3644.98682	1.46151
3643.05825	1.49656
3641.12969	1.53577
3639.20112	1.58107
3637.27256	1.62807
3635.34399	1.67514
3633.41543	1.72307
3631.48687	1.76880
3629.55830	1.81645
3627.62974	1.87523
3625.70117	1.92279
3623.77261	1.95221
3621.84404	1.98309
3619.91548	2.02134
3617.98691	2.06681
3616.05835	2.10814
3614.12979	2.14219
3612.20122	2.17869
3610.27266	2.21721
3608.34409	2.25980
3606.41553	2.30502
3604.48696	2.34326
3602.55840	2.37772
3600.62983	2.41840
3598.70127	2.46203
3596.77271	2.50161
3594.84414	2.54200
3592.91558	2.58476
3590.98701	2.62345
3589.05845	2.65864
3587.12988	2.70128
3585.20132	2.74704
3583.27275	2.78342
3581.34419	2.81722
3579.41562	2.85608
3577.48706	2.89862
3575.55850	2.94144
3573.62993	2.98550
3571.70137	3.02880
3569.77280	3.07082
3567.84424	3.11799
3565.91567	3.17540
3563.98711	3.22522
3562.05854	3.26279
3560.12998	3.30250
3558.20142	3.34519
3556.27285	3.38711
3554.34429	3.43010
3552.41572	3.47793
3550.48716	3.52611
3548.55859	3.57197
3546.63003	3.61944
3544.70146	3.66922
3542.77290	3.71792
3540.84434	3.76426
3538.91577	3.81008
3536.98721	3.85685
3535.05864	3.90499
3533.13008	3.95265
3531.20151	4.00151
3529.27295	4.05256
3527.34438	4.10354
3525.41582	4.15075
3523.48726	4.19530
3521.55869	4.24141
3519.63013	4.28923
3517.70156	4.33945
3515.77300	4.38963
3513.84443	4.43891
3511.91587	4.48958
3509.98730	4.54289
3508.05874	4.59468
3506.13018	4.64066
3504.20161	4.68514
3502.27305	4.72981
3500.34448	4.77579
3498.41592	4.82694
3496.48735	4.87766
3494.55879	4.92158
3492.63022	4.96818
3490.70166	5.02156
3488.77310	5.07236
3486.84453	5.11888
3484.91597	5.16419
3482.98740	5.21159
3481.05884	5.26368
3479.13027	5.31315
3477.20171	5.35780
3475.27314	5.40867
3473.34458	5.47043
3471.41602	5.53120
3469.48745	5.58181
3467.55889	5.62541
3465.63032	5.66702
3463.70176	5.71736
3461.77319	5.77659
3459.84463	5.83482
3457.91606	5.88703
3455.98750	5.93140
3454.05894	5.97428
3452.13037	6.02244
3450.20181	6.07353
3448.27324	6.12382
3446.34468	6.17648
3444.41611	6.23311
3442.48755	6.28935
3440.55898	6.33518
3438.63042	6.37077
3436.70186	6.40558
3434.77329	6.45512
3432.84473	6.51886
3430.91616	6.57997
3428.98760	6.64045
3427.05903	6.69118
3425.13047	6.74618
3423.20190	6.82078
3421.27334	6.89321
3419.34478	6.96238
3417.41621	7.03245
3415.48765	7.07294
3413.55908	7.06798
3411.63052	7.04648
3409.70195	7.04405
3407.77339	7.10307
3405.84482	7.20069
3403.91626	7.26460
3401.98770	7.28420
3400.05913	7.30388
3398.13057	7.35937
3396.20200	7.45489
3394.27344	7.55150
3392.34487	7.58094
3390.41631	7.59809
3388.48774	7.67865
3386.55918	7.77183
3384.63062	7.83174
3382.70205	7.89830
3380.77349	7.95220
3378.84492	7.93974
3376.91636	7.91904
3374.98779	7.93253
3373.05923	7.95894
3371.13066	7.96739
3369.20210	7.96178
3367.27354	7.95642
3365.34497	7.95738
3363.41641	7.96965
3361.48784	8.03195
3359.55928	8.11187
3357.63071	8.10661
3355.70215	8.08654
3353.77358	8.08953
3351.84502	8.10339
3349.91646	8.16056
3347.98789	8.22319
3346.05933	8.22376
3344.13076	8.17802
3342.20220	8.20235
3340.27363	8.31901
3338.34507	8.37438
3336.41650	8.32770
3334.48794	8.33064
3332.55937	8.36657
3330.63081	8.31819
3328.70225	8.22302
3326.77368	8.20918
3324.84512	8.28715
3322.91655	8.38906
3320.98799	8.51604
3319.05942	8.57431
3317.13086	8.51612
3315.20229	8.47630
3313.27373	8.51867
3311.34517	8.60167
3309.41660	8.65177
3307.48804	8.61878
3305.55947	8.55186
3303.63091	8.49464
3301.70234	8.43766
3299.77378	8.39515
3297.84521	8.39522
3295.91665	8.45694
3293.98809	8.49832
3292.05952	8.52697
3290.13096	8.58882
3288.20239	8.62283
3286.27383	8.62071
3284.34526	8.58645
3282.41670	8.59173
3280.48813	8.68372
3278.55957	8.81261
3276.63101	8.88717
3274.70244	8.87031
3272.77388	8.80226
3270.84531	8.67537
3268.91675	8.55205
3266.98818	8.54963
3265.05962	8.59069
3263.13105	8.55323
3261.20249	8.53576
3259.27393	8.54844
3257.34536	8.54482
3255.41680	8.55473
3253.48823	8.60002
3251.55967	8.68885
3249.63110	8.81469
3247.70254	8.90819
3245.77397	8.82678
3243.84541	8.64275
3241.91685	8.49429
3239.98828	8.48358
3238.05972	8.63785
3236.13115	8.78549
3234.20259	8.79501
3232.27402	8.72639
3230.34546	8.66817
3228.41689	8.64758
3226.48833	8.64629
3224.55977	8.66575
3222.63120	8.66518
3220.70264	8.60459
3218.77407	8.58607
3216.84551	8.60352
3214.91694	8.51575
3212.98838	8.41677
3211.05981	8.43000
3209.13125	8.42879
3207.20269	8.29992
3205.27412	8.17700
3203.34556	8.12720
3201.41699	8.06870
3199.48843	7.99993
3197.55986	7.97002
3195.63130	7.94454
3193.70273	7.89062
3191.77417	7.81357
3189.84561	7.73287
3187.91704	7.68011
3185.98848	7.66509
3184.05991	7.66235
3182.13135	7.62784
3180.20278	7.56806
3178.27422	7.50244
3176.34565	7.41627
3174.41709	7.33831
3172.48853	7.28830
3170.55996	7.21735
3168.63140	7.13421
3166.70283	7.08293
3164.77427	7.02977
3162.84570	6.94817
3160.91714	6.88613
3158.98857	6.85651
3157.06001	6.79246
3155.13145	6.69550
3153.20288	6.61484
3151.27432	6.53991
3149.34575	6.46284
3147.41719	6.39410
3145.48862	6.32597
3143.56006	6.24089
3141.63149	6.14746
3139.70293	6.06926
3137.77437	6.00343
3135.84580	5.93275
3133.91724	5.85517
3131.98867	5.77887
3130.06011	5.71074
3128.13154	5.64589
3126.20298	5.57425
3124.27441	5.50136
3122.34585	5.42790
3120.41729	5.34943
3118.48872	5.27303
3116.56016	5.20118
3114.63159	5.13089
3112.70303	5.06247
3110.77446	4.99534
3108.84590	4.92821
3106.91733	4.85979
3104.98877	4.78650
3103.06021	4.71154
3101.13164	4.64296
3099.20308	4.57921
3097.27451	4.51336
3095.34595	4.44562
3093.41738	4.37976
3091.48882	4.31765
3089.56025	4.25830
3087.63169	4.19531
3085.70312	4.12724
3083.77456	4.06072
3081.84600	3.99770
3079.91743	3.93539
3077.98887	3.87361
3076.06030	3.81310
3074.13174	3.75457
3072.20317	3.69846
3070.27461	3.64198
3068.34604	3.58476
3066.41748	3.52950
3064.48892	3.47549
3062.56035	3.42009
3060.63179	3.36332
3058.70322	3.30734
3056.77466	3.25309
3054.84609	3.20081
3052.91753	3.15020
3050.98896	3.09946
3049.06040	3.04772
3047.13184	2.99564
3045.20327	2.94468
3043.27471	2.89624
3041.34614	2.84913
3039.41758	2.80124
3037.48901	2.75263
3035.56045	2.70481
3033.63188	2.65938
3031.70332	2.61561
3029.77476	2.57175
3027.84619	2.52832
3025.91763	2.48558
3023.98906	2.44233
3022.06050	2.39889
3020.13193	2.35685
3018.20337	2.31641
3016.27480	2.27649
3014.34624	2.23678
3012.41768	2.19786
3010.48911	2.15968
3008.56055	2.12232
3006.63198	2.08601
3004.70342	2.05019
3002.77485	2.01458
3000.84629	1.97958
2998.91772	1.94545
2996.98916	1.91229
2995.06060	1.88013
2993.13203	1.84879
2991.20347	1.81804
2989.27490	1.78807
2987.34634	1.75920
2985.41777	1.73109
2983.48921	1.70315
2981.56064	1.67555
2979.63208	1.64874
2977.70352	1.62229
2975.77495	1.59616
2973.84639	1.57093
2971.91782	1.54632
2969.98926	1.52172
2968.06069	1.49718
2966.13213	1.47286
2964.20356	1.44892
2962.27500	1.42561
2960.34644	1.40235
2958.41787	1.37840
2956.48931	1.35431
2954.56074	1.33088
2952.63218	1.30752
2950.70361	1.28399
2948.77505	1.26113
2946.84648	1.23877
2944.91792	1.21664
2942.98936	1.19533
2941.06079	1.17472
2939.13223	1.15432
2937.20366	1.13405
2935.27510	1.11353
2933.34653	1.09321
2931.41797	1.07360
2929.48940	1.05387
2927.56084	1.03409
2925.63228	1.01504
2923.70371	0.99683
2921.77515	0.97920
2919.84658	0.96215
2917.91802	0.94588
2915.98945	0.92994
2914.06089	0.91394
2912.13232	0.89789
2910.20376	0.88177
2908.27520	0.86578
2906.34663	0.85032
2904.41807	0.83558
2902.48950	0.82160
2900.56094	0.80828
2898.63237	0.79517
2896.70381	0.78190
2894.77524	0.76886
2892.84668	0.75665
2890.91812	0.74502
2888.98955	0.73357
2887.06099	0.72257
2885.13242	0.71212
2883.20386	0.70194
2881.27529	0.69192
2879.34673	0.68225
2877.41816	0.67292
2875.48960	0.66353
2873.56104	0.65348
2871.63247	0.64263
2869.70391	0.63130
2867.77534	0.61948
2865.84678	0.60707
2863.91821	0.59452
2861.98965	0.58244
2860.06108	0.57114
2858.13252	0.56033
2856.20396	0.54987
2854.27539	0.54005
2852.34683	0.53107
2850.41826	0.52306
2848.48970	0.51545
2846.56113	0.50761
2844.63257	0.49981
2842.70400	0.49250
2840.77544	0.48589
2838.84687	0.47989
2836.91831	0.47400
2834.98975	0.46778
2833.06118	0.46135
2831.13262	0.45499
2829.20405	0.44887
2827.27549	0.44294
2825.34692	0.43693
2823.41836	0.43071
2821.48979	0.42445
2819.56123	0.41849
2817.63267	0.41284
2815.70410	0.40731
2813.77554	0.40182
2811.84697	0.39628
2809.91841	0.39070
2807.98984	0.38525
2806.06128	0.37999
2804.13271	0.37479
2802.20415	0.36959
2800.27559	0.36450
2798.34702	0.35944
2796.41846	0.35443
2794.48989	0.34973
2792.56133	0.34516
2790.63276	0.34048
2788.70420	0.33587
2786.77563	0.33137
2784.84707	0.32697
2782.91851	0.32269
2780.98994	0.31847
2779.06138	0.31436
2777.13281	0.31037
2775.20425	0.30634
2773.27568	0.30226
2771.34712	0.29839
2769.41855	0.29471
2767.48999	0.29104
2765.56143	0.28743
2763.63286	0.28394
2761.70430	0.28047
2759.77573	0.27708
2757.84717	0.27380
2755.91860	0.27059
2753.99004	0.26744
2752.06147	0.26427
2750.13291	0.26120
2748.20435	0.25831
2746.27578	0.25544
2744.34722	0.25257
2742.41865	0.24972
2740.49009	0.24693
2738.56152	0.24421
2736.63296	0.24147
2734.70439	0.23882
2732.77583	0.23641
2730.84727	0.23413
2728.91870	0.23184
2726.99014	0.22950
2725.06157	0.22717
2723.13301	0.22496
2721.20444	0.22284
2719.27588	0.22076
2717.34731	0.21883
2715.41875	0.21693
2713.49019	0.21488
2711.56162	0.21290
2709.63306	0.21113
2707.70449	0.20941
2705.77593	0.20763
2703.84736	0.20589
2701.91880	0.20432
2699.99023	0.20294
2698.06167	0.20161
2696.13311	0.20024
2694.20454	0.19879
2692.27598	0.19722
2690.34741	0.19569
2688.41885	0.19441
2686.49028	0.19335
2684.56172	0.19227
2682.63315	0.19095
2680.70459	0.18949
2678.77603	0.18806
2676.84746	0.18679
2674.91890	0.18577
2672.99033	0.18468
2671.06177	0.18333
2669.13320	0.18205
2667.20464	0.18113
2665.27607	0.18040
2663.34751	0.17959
2661.41895	0.17870
2659.49038	0.17777
2657.56182	0.17672
2655.63325	0.17573
2653.70469	0.17503
2651.77612	0.17445
2649.84756	0.17384
2647.91899	0.17322
2645.99043	0.17248
2644.06187	0.17165
2642.13330	0.17099
2640.20474	0.17043
2638.27617	0.16981
2636.34761	0.16923
2634.41904	0.16876
2632.49048	0.16836
2630.56191	0.16797
2628.63335	0.16755
2626.70479	0.16711
2624.77622	0.16660
2622.84766	0.16608
2620.91909	0.16568
2618.99053	0.16541
2617.06196	0.16521
2615.13340	0.16508
2613.20483	0.16493
2611.27627	0.16470
2609.34771	0.16445
2607.41914	0.16421
2605.49058	0.16397
2603.56201	0.16375
2601.63345	0.16369
2599.70488	0.16379
2597.77632	0.16382
2595.84775	0.16376
2593.91919	0.16380
2591.99062	0.16389
2590.06206	0.16391
2588.13350	0.16392
2586.20493	0.16404
2584.27637	0.16432
2582.34780	0.16459
2580.41924	0.16475
2578.49067	0.16497
2576.56211	0.16523
2574.63354	0.16543
2572.70498	0.16563
2570.77642	0.16587
2568.84785	0.16616
2566.91929	0.16639
2564.99072	0.16663
2563.06216	0.16703
2561.13359	0.16755
2559.20503	0.16806
2557.27646	0.16850
2555.34790	0.16894
2553.41934	0.16934
2551.49077	0.16976
2549.56221	0.17029
2547.63364	0.17082
2545.70508	0.17134
2543.77651	0.17187
2541.84795	0.17233
2539.91938	0.17280
2537.99082	0.17340
2536.06226	0.17409
2534.13369	0.17474
2532.20513	0.17527
2530.27656	0.17576
2528.34800	0.17636
2526.41943	0.17707
2524.49087	0.17789
2522.56230	0.17874
2520.63374	0.17947
2518.70518	0.18003
2516.77661	0.18051
2514.84805	0.18109
2512.91948	0.18183
2510.99092	0.18264
2509.06235	0.18349
2507.13379	0.18438
2505.20522	0.18523
2503.27666	0.18599
2501.34810	0.18668
2499.41953	0.18745
2497.49097	0.18832
2495.56240	0.18918
2493.63384	0.19004
2491.70527	0.19094
2489.77671	0.19174
2487.84814	0.19238
2485.91958	0.19303
2483.99102	0.19382
2482.06245	0.19472
2480.13389	0.19566
2478.20532	0.19649
2476.27676	0.19711
2474.34819	0.19770
2472.41963	0.19846
2470.49106	0.19934
2468.56250	0.20030
2466.63394	0.20141
2464.70537	0.20260
2462.77681	0.20360
2460.84824	0.20438
2458.91968	0.20510
2456.99111	0.20590
2455.06255	0.20682
2453.13398	0.20782
2451.20542	0.20878
2449.27686	0.20962
2447.34829	0.21040
2445.41973	0.21124
2443.49116	0.21214
2441.56260	0.21308
2439.63403	0.21408
2437.70547	0.21514
2435.77690	0.21623
2433.84834	0.21726
2431.91978	0.21824
2429.99121	0.21927
2428.06265	0.22036
2426.13408	0.22139
2424.20552	0.22233
2422.27695	0.22338
2420.34839	0.22450
2418.41982	0.22562
2416.49126	0.22681
2414.56270	0.22802
2412.63413	0.22910
2410.70557	0.23011
2408.77700	0.23116
2406.84844	0.23224
2404.91987	0.23331
2402.99131	0.23441
2401.06274	0.23558
2399.13418	0.23682
2397.20562	0.23805
2395.27705	0.23921
2393.34849	0.24041
2391.41992	0.24195
2389.49136	0.24429
2387.56279	0.24842
2385.63423	0.25602
2383.70566	0.26898
2381.77710	0.28802
2379.84854	0.31205
2377.91997	0.33962
2375.99141	0.37099
2374.06284	0.40740
2372.13428	0.44895
2370.20571	0.49430
2368.27715	0.54107
2366.34858	0.58597
2364.42002	0.62508
2362.49146	0.65417
2360.56289	0.67064
2358.63433	0.67168
2356.70576	0.65266
2354.77720	0.61417
2352.84863	0.56348
2350.92007	0.51204
2348.99150	0.48037
2347.06294	0.48098
2345.13437	0.51312
2343.20581	0.55466
2341.27725	0.57454
2339.34868	0.57418
2337.42012	0.56766
2335.49155	0.56043
2333.56299	0.55348
2331.63442	0.54841
2329.70586	0.54275
2327.77729	0.53292
2325.84873	0.51959
2323.92017	0.50523
2321.99160	0.49013
2320.06304	0.47271
2318.13447	0.45342
2316.20591	0.43615
2314.27734	0.42429
2312.34878	0.41699
2310.42021	0.41010
2308.49165	0.40067
2306.56309	0.38928
2304.63452	0.37874
2302.70596	0.37152
2300.77739	0.36709
2298.84883	0.36317
2296.92026	0.35908
2294.99170	0.35526
2293.06313	0.35168
2291.13457	0.34829
2289.20601	0.34523
2287.27744	0.34236
2285.34888	0.33972
2283.42031	0.33837
2281.49175	0.33945
2279.56318	0.34257
2277.63462	0.34620
2275.70605	0.34934
2273.77749	0.35191
2271.84893	0.35413
2269.92036	0.35604
2267.99180	0.35770
2266.06323	0.35931
2264.13467	0.36088
2262.20610	0.36230
2260.27754	0.36364
2258.34897	0.36495
2256.42041	0.36613
2254.49185	0.36723
2252.56328	0.36836
2250.63472	0.36968
2248.70615	0.37118
2246.77759	0.37277
2244.84902	0.37447
2242.92046	0.37630
2240.99189	0.37822
2239.06333	0.38015
2237.13477	0.38214
2235.20620	0.38424
2233.27764	0.38636
2231.34907	0.38847
2229.42051	0.39058
2227.49194	0.39268
2225.56338	0.39474
2223.63481	0.39677
2221.70625	0.39887
2219.77769	0.40109
2217.84912	0.40328
2215.92056	0.40543
2213.99199	0.40769
2212.06343	0.40993
2210.13486	0.41197
2208.20630	0.41395
2206.27773	0.41607
2204.34917	0.41823
2202.42061	0.42034
2200.49204	0.42240
2198.56348	0.42440
2196.63491	0.42627
2194.70635	0.42807
2192.77778	0.42998
2190.84922	0.43201
2188.92065	0.43401
2186.99209	0.43591
2185.06353	0.43771
2183.13496	0.43931
2181.20640	0.44073
2179.27783	0.44218
2177.34927	0.44379
2175.42070	0.44542
2173.49214	0.44696
2171.56357	0.44846
2169.63501	0.44994
2167.70645	0.45125
2165.77788	0.45233
2163.84932	0.45340
2161.92075	0.45459
2159.99219	0.45576
2158.06362	0.45684
2156.13506	0.45783
2154.20649	0.45859
2152.27793	0.45918
2150.34937	0.45982
2148.42080	0.46050
2146.49224	0.46105
2144.56367	0.46152
2142.63511	0.46205
2140.70654	0.46251
2138.77798	0.46284
2136.84941	0.46302
2134.92085	0.46306
2132.99229	0.46306
2131.06372	0.46300
2129.13516	0.46283
2127.20659	0.46249
2125.27803	0.46203
2123.34946	0.46156
2121.42090	0.46110
2119.49233	0.46055
2117.56377	0.45990
2115.63521	0.45915
2113.70664	0.45825
2111.77808	0.45727
2109.84951	0.45628
2107.92095	0.45529
2105.99238	0.45423
2104.06382	0.45311
2102.13525	0.45191
2100.20669	0.45061
2098.27812	0.44928
2096.34956	0.44791
2094.42100	0.44631
2092.49243	0.44454
2090.56387	0.44289
2088.63530	0.44123
2086.70674	0.43936
2084.77817	0.43734
2082.84961	0.43530
2080.92104	0.43335
2078.99248	0.43153
2077.06392	0.42957
2075.13535	0.42737
2073.20679	0.42505
2071.27822	0.42267
2069.34966	0.42034
2067.42109	0.41818
2065.49253	0.41609
2063.56396	0.41370
2061.63540	0.41104
2059.70684	0.40847
2057.77827	0.40596
2055.84971	0.40345
2053.92114	0.40092
2051.99258	0.39834
2050.06401	0.39571
2048.13545	0.39306
2046.20688	0.39033
2044.27832	0.38763
2042.34976	0.38503
2040.42119	0.38242
2038.49263	0.37974
2036.56406	0.37701
2034.63550	0.37419
2032.70693	0.37129
2030.77837	0.36839
2028.84980	0.36554
2026.92124	0.36282
2024.99268	0.36010
2023.06411	0.35732
2021.13555	0.35463
2019.20698	0.35212
2017.27842	0.34957
2015.34985	0.34666
2013.42129	0.34362
2011.49272	0.34080
2009.56416	0.33819
2007.63560	0.33559
2005.70703	0.33288
2003.77847	0.33007
2001.84990	0.32736
1999.92134	0.32478
1997.99277	0.32215
1996.06421	0.31958
1994.13564	0.31744
1992.20708	0.31548
1990.27852	0.31298
1988.34995	0.31010
1986.42139	0.30728
1984.49282	0.30463
1982.56426	0.30221
1980.63569	0.29993
1978.70713	0.29777
1976.77856	0.29562
1974.85000	0.29340
1972.92144	0.29116
1970.99287	0.28910
1969.06431	0.28741
1967.13574	0.28576
1965.20718	0.28361
1963.27861	0.28125
1961.35005	0.27913
1959.42148	0.27722
1957.49292	0.27546
1955.56436	0.27374
1953.63579	0.27192
1951.70723	0.27005
1949.77866	0.26830
1947.85010	0.26682
1945.92153	0.26572
1943.99297	0.26491
1942.06440	0.26374
1940.13584	0.26168
1938.20728	0.25956
1936.27871	0.25800
1934.35015	0.25670
1932.42158	0.25543
1930.49302	0.25422
1928.56445	0.25311
1926.63589	0.25213
1924.70732	0.25162
1922.77876	0.25131
1920.85020	0.25048
1918.92163	0.24958
1916.99307	0.24867
1915.06450	0.24724
1913.13594	0.24593
1911.20737	0.24538
1909.27881	0.24515
1907.35024	0.24439
1905.42168	0.24320
1903.49312	0.24230
1901.56455	0.24176
1899.63599	0.24130
1897.70742	0.24103
1895.77886	0.24098
1893.85029	0.24080
1891.92173	0.24057
1889.99316	0.24066
1888.06460	0.24032
1886.13604	0.23952
1884.20747	0.23894
1882.27891	0.23853
1880.35034	0.23827
1878.42178	0.23822
1876.49321	0.23821
1874.56465	0.23815
1872.63608	0.23848
1870.70752	0.23984
1868.77896	0.24196
1866.85039	0.24235
1864.92183	0.24078
1862.99326	0.23964
1861.06470	0.23956
1859.13613	0.24002
1857.20757	0.24039
1855.27900	0.24059
1853.35044	0.24084
1851.42187	0.24141
1849.49331	0.24246
1847.56475	0.24396
1845.63618	0.24583
1843.70762	0.24743
1841.77905	0.24740
1839.85049	0.24670
1837.92192	0.24706
1835.99336	0.24803
1834.06479	0.24908
1832.13623	0.25078
1830.20767	0.25338
1828.27910	0.25511
1826.35054	0.25561
1824.42197	0.25649
1822.49341	0.25716
1820.56484	0.25765
1818.63628	0.25869
1816.70771	0.26030
1814.77915	0.26200
1812.85059	0.26419
1810.92202	0.26687
1808.99346	0.26887
1807.06489	0.27018
1805.13633	0.27184
1803.20776	0.27449
1801.27920	0.27778
1799.35063	0.28093
1797.42207	0.28339
1795.49351	0.28605
1793.56494	0.28981
1791.63638	0.29399
1789.70781	0.29613
1787.77925	0.29725
1785.85068	0.29999
1783.92212	0.30394
1781.99355	0.30824
1780.06499	0.31263
1778.13643	0.31675
1776.20786	0.32095
1774.27930	0.32657
1772.35073	0.33416
1770.42217	0.34037
1768.49360	0.34396
1766.56504	0.34757
1764.63647	0.35224
1762.70791	0.35847
1760.77935	0.36626
1758.85078	0.37301
1756.92222	0.37980
1754.99365	0.38712
1753.06509	0.39422
1751.13652	0.40394
1749.20796	0.41602
1747.27939	0.42632
1745.35083	0.43450
1743.42227	0.44349
1741.49370	0.45386
1739.56514	0.46627
1737.63657	0.47874
1735.70801	0.49057
1733.77944	0.50867
1731.85088	0.52790
1729.92231	0.54152
1727.99375	0.55549
1726.06519	0.57129
1724.13662	0.58956
1722.20806	0.60976
1720.27949	0.62922
1718.35093	0.65348
1716.42236	0.68782
1714.49380	0.71701
1712.56523	0.73937
1710.63667	0.76221
1708.70811	0.78838
1706.77954	0.81936
1704.85098	0.85617
1702.92241	0.88819
1700.99385	0.92032
1699.06528	0.96896
1697.13672	1.01300
1695.20815	1.05619
1693.27959	1.09754
1691.35103	1.13232
1689.42246	1.17452
1687.49390	1.21973
1685.56533	1.26417
1683.63677	1.33244
1681.70820	1.40025
1679.77964	1.44186
1677.85107	1.48256
1675.92251	1.53109
1673.99395	1.59183
1672.06538	1.64640
1670.13682	1.70106
1668.20825	1.77081
1666.27969	1.82620
1664.35112	1.87538
1662.42256	1.94094
1660.49399	2.01519
1658.56543	2.07198
1656.63687	2.11835
1654.70830	2.16306
1652.77974	2.23023
1650.85117	2.28643
1648.92261	2.30435
1646.99404	2.32957
1645.06548	2.35310
1643.13691	2.36439
1641.20835	2.36868
1639.27979	2.37479
1637.35122	2.38193
1635.42266	2.38231
1633.49409	2.36674
1631.56553	2.34678
1629.63696	2.32803
1627.70840	2.29778
1625.77983	2.26100
1623.85127	2.21454
1621.92271	2.15701
1619.99414	2.10726
1618.06558	2.06248
1616.13701	1.99778
1614.20845	1.92797
1612.27988	1.87421
1610.35132	1.82030
1608.42275	1.76279
1606.49419	1.70564
1604.56562	1.65287
1602.63706	1.60255
1600.70850	1.55409
1598.77993	1.50980
1596.85137	1.46841
1594.92280	1.42852
1592.99424	1.39037
1591.06567	1.35573
1589.13711	1.32361
1587.20854	1.29410
1585.27998	1.26728
1583.35142	1.24291
1581.42285	1.22160
1579.49429	1.20453
1577.56572	1.19056
1575.63716	1.17306
1573.70859	1.15603
1571.78003	1.14556
1569.85146	1.13694
1567.92290	1.12766
1565.99434	1.12111
1564.06577	1.11796
1562.13721	1.11735
1560.20864	1.12131
1558.28008	1.13158
1556.35151	1.13596
1554.42295	1.13706
1552.49438	1.13945
1550.56582	1.14036
1548.63726	1.13848
1546.70869	1.13418
1544.78013	1.12775
1542.85156	1.11897
1540.92300	1.10334
1538.99443	1.07095
1537.06587	1.04330
1535.13730	1.02552
1533.20874	1.00387
1531.28018	0.98004
1529.35161	0.96284
1527.42305	0.94808
1525.49448	0.93323
1523.56592	0.92075
1521.63735	0.90902
1519.70879	0.89583
1517.78022	0.88401
1515.85166	0.87009
1513.92310	0.85482
1511.99453	0.84221
1510.06597	0.83275
1508.13740	0.82547
1506.20884	0.80998
1504.28027	0.79111
1502.35171	0.78041
1500.42314	0.77330
1498.49458	0.76698
1496.56602	0.75866
1494.63745	0.74884
1492.70889	0.74172
1490.78032	0.73733
1488.85176	0.73208
1486.92319	0.72449
1484.99463	0.71765
1483.06606	0.71306
1481.13750	0.70997
1479.20894	0.70789
1477.28037	0.70757
1475.35181	0.70924
1473.42324	0.71155
1471.49468	0.71082
1469.56611	0.70693
1467.63755	0.70375
1465.70898	0.70225
1463.78042	0.70125
1461.85186	0.70061
1459.92329	0.70193
1457.99473	0.70570
1456.06616	0.70717
1454.13760	0.70302
1452.20903	0.69880
1450.28047	0.69589
1448.35190	0.69367
1446.42334	0.69081
1444.49478	0.68744
1442.56621	0.68441
1440.63765	0.68175
1438.70908	0.67971
1436.78052	0.67739
1434.85195	0.67338
1432.92339	0.66965
1430.99482	0.66766
1429.06626	0.66666
1427.13770	0.66606
1425.20913	0.66670
1423.28057	0.66853
1421.35200	0.67015
1419.42344	0.67152
1417.49487	0.67164
1415.56631	0.66976
1413.63774	0.66830
1411.70918	0.66821
1409.78062	0.66914
1407.85205	0.67081
1405.92349	0.67327
1403.99492	0.67542
1402.06636	0.67603
1400.13779	0.67602
1398.20923	0.67542
1396.28066	0.67314
1394.35210	0.66875
1392.42354	0.66304
1390.49497	0.65788
1388.56641	0.65358
1386.63784	0.64860
1384.70928	0.64249
1382.78071	0.63658
1380.85215	0.63150
1378.92358	0.62742
1376.99502	0.62458
1375.06646	0.62302
1373.13789	0.62175
1371.20933	0.62032
1369.28076	0.61927
1367.35220	0.61810
1365.42363	0.61665
1363.49507	0.61562
1361.56650	0.61431
1359.63794	0.61205
1357.70937	0.60993
1355.78081	0.60838
1353.85225	0.60714
1351.92368	0.60612
1349.99512	0.60538
1348.06655	0.60464
1346.13799	0.60366
1344.20942	0.60271
1342.28086	0.60228
1340.35229	0.60244
1338.42373	0.60227
1336.49517	0.60118
1334.56660	0.60000
1332.63804	0.59946
1330.70947	0.59956
1328.78091	0.60009
1326.85234	0.60100
1324.92378	0.60214
1322.99521	0.60336
1321.06665	0.60457
1319.13809	0.60561
1317.20952	0.60612
1315.28096	0.60604
1313.35239	0.60569
1311.42383	0.60512
1309.49526	0.60435
1307.56670	0.60359
1305.63813	0.60300
1303.70957	0.60242
1301.78101	0.60161
1299.85244	0.60051
1297.92388	0.59926
1295.99531	0.59794
1294.06675	0.59659
1292.13818	0.59539
1290.20962	0.59425
1288.28105	0.59292
1286.35249	0.59140
1284.42393	0.58979
1282.49536	0.58825
1280.56680	0.58692
1278.63823	0.58555
1276.70967	0.58391
1274.78110	0.58236
1272.85254	0.58127
1270.92397	0.58053
1268.99541	0.57989
1267.06685	0.57930
1265.13828	0.57858
1263.20972	0.57772
1261.28115	0.57688
1259.35259	0.57609
1257.42402	0.57527
1255.49546	0.57454
1253.56689	0.57413
1251.63833	0.57420
1249.70977	0.57446
1247.78120	0.57437
1245.85264	0.57390
1243.92407	0.57328
1241.99551	0.57245
1240.06694	0.57115
1238.13838	0.56923
1236.20981	0.56686
1234.28125	0.56436
1232.35269	0.56179
1230.42412	0.55919
1228.49556	0.55670
1226.56699	0.55446
1224.63843	0.55248
1222.70986	0.55068
1220.78130	0.54891
1218.85273	0.54715
1216.92417	0.54556
1214.99561	0.54427
1213.06704	0.54333
1211.13848	0.54265
1209.20991	0.54204
1207.28135	0.54139
1205.35278	0.54063
1203.42422	0.53969
1201.49565	0.53858
1199.56709	0.53740
1197.63853	0.53639
1195.70996	0.53563
1193.78140	0.53494
1191.85283	0.53426
1189.92427	0.53370
1187.99570	0.53335
1186.06714	0.53317
1184.13857	0.53317
1182.21001	0.53357
1180.28145	0.53456
1178.35288	0.53605
1176.42432	0.53779
1174.49575	0.53935
1172.56719	0.54031
1170.63862	0.54067
1168.71006	0.54072
1166.78149	0.54069
1164.85293	0.54065
1162.92437	0.54055
1160.99580	0.54050
1159.06724	0.54049
1157.13867	0.54032
1155.21011	0.53969
1153.28154	0.53838
1151.35298	0.53647
1149.42441	0.53411
1147.49585	0.53147
1145.56729	0.52877
1143.63872	0.52616
1141.71016	0.52391
1139.78159	0.52231
1137.85303	0.52125
1135.92446	0.52051
1133.99590	0.52007
1132.06733	0.52005
1130.13877	0.52025
1128.21021	0.52031
1126.28164	0.52015
1124.35308	0.51997
1122.42451	0.51988
1120.49595	0.51989
1118.56738	0.52002
1116.63882	0.52023
1114.71025	0.52058
1112.78169	0.52121
1110.85312	0.52209
1108.92456	0.52312
1106.99600	0.52421
1105.06743	0.52522
1103.13887	0.52601
1101.21030	0.52687
1099.28174	0.52818
1097.35317	0.53004
1095.42461	0.53260
1093.49604	0.53614
1091.56748	0.54085
1089.63892	0.54692
1087.71035	0.55451
1085.78179	0.56299
1083.85322	0.57134
1081.92466	0.57867
1079.99609	0.58406
1078.06753	0.58683
1076.13896	0.58661
1074.21040	0.58350
1072.28184	0.57814
1070.35327	0.57120
1068.42471	0.56365
1066.49614	0.55642
1064.56758	0.54979
1062.63901	0.54385
1060.71045	0.53882
1058.78188	0.53469
1056.85332	0.53110
1054.92476	0.52775
1052.99619	0.52460
1051.06763	0.52199
1049.13906	0.52019
1047.21050	0.51907
1045.28193	0.51844
1043.35337	0.51810
1041.42480	0.51784
1039.49624	0.51753
1037.56768	0.51713
1035.63911	0.51664
1033.71055	0.51596
1031.78198	0.51484
1029.85342	0.51330
1027.92485	0.51160
1025.99629	0.50997
1024.06772	0.50863
1022.13916	0.50775
1020.21060	0.50733
1018.28203	0.50725
1016.35347	0.50714
1014.42490	0.50673
1012.49634	0.50634
1010.56777	0.50622
1008.63921	0.50630
1006.71064	0.50653
1004.78208	0.50724
1002.85352	0.50885
1000.92495	0.51142
998.99639	0.51487
997.06782	0.51912
995.13926	0.52364
993.21069	0.52778
991.28213	0.53105
989.35356	0.53301
987.42500	0.53368
985.49644	0.53358
983.56787	0.53334
981.63931	0.53352
979.71074	0.53433
977.78218	0.53563
975.85361	0.53731
973.92505	0.53958
971.99648	0.54249
970.06792	0.54574
968.13936	0.54936
966.21079	0.55349
964.28223	0.55798
962.35366	0.56267
960.42510	0.56768
958.49653	0.57318
956.56797	0.57894
954.63940	0.58466
952.71084	0.59050
950.78228	0.59681
948.85371	0.60346
946.92515	0.61024
944.99658	0.61705
943.06802	0.62341
941.13945	0.62916
939.21089	0.63492
937.28232	0.64091
935.35376	0.64678
933.42520	0.65242
931.49663	0.65806
929.56807	0.66401
927.63950	0.67024
925.71094	0.67627
923.78237	0.68257
921.85381	0.68992
919.92524	0.69731
917.99668	0.70414
916.06812	0.71153
914.13955	0.71948
912.21099	0.72719
910.28242	0.73507
908.35386	0.74366
906.42529	0.75234
904.49673	0.76092
902.56816	0.77021
900.63960	0.78074
898.71104	0.79164
896.78247	0.80127
894.85391	0.81013
892.92534	0.82036
890.99678	0.83229
889.06821	0.84415
887.13965	0.85501
885.21108	0.86575
883.28252	0.87687
881.35396	0.88793
879.42539	0.89975
877.49683	0.91255
875.56826	0.92372
873.63970	0.93346
871.71113	0.94507
869.78257	0.95822
867.85400	0.97060
865.92544	0.98129
863.99687	0.99136
862.06831	1.00360
860.13975	1.01742
858.21118	1.02942
856.28262	1.04007
854.35405	1.05177
852.42549	1.06365
850.49692	1.07532
848.56836	1.08898
846.63979	1.10416
844.71123	1.11743
842.78267	1.12729
840.85410	1.13688
838.92554	1.15106
836.99697	1.16894
835.06841	1.18304
833.13984	1.19156
831.21128	1.19983
829.28271	1.21128
827.35415	1.22612
825.42559	1.24043
823.49702	1.25531
821.56846	1.27593
819.63989	1.29568
817.71133	1.30677
815.78276	1.32027
813.85420	1.35065
811.92563	1.38992
809.99707	1.40944
808.06851	1.40625
806.13994	1.41390
804.21138	1.43937
802.28281	1.46621
800.35425	1.50272
798.42568	1.56733
796.49712	1.65555
794.56855	1.83593
792.63999	4.75584
790.71143	4.74427
788.78286	4.73270
786.85430	1.98804
784.92573	1.72414
782.99717	1.77290
781.06860	1.90457
779.14004	1.93908
777.21147	1.92856
775.28291	1.75220
773.35435	1.57561
771.42578	1.53215
769.49722	1.54436
767.56865	1.48021
765.64009	1.37284
763.71152	1.26872
761.78296	1.18781
759.85439	1.16864
757.92583	1.17445
755.99727	1.11521
754.06870	1.04709
752.14014	1.04188
750.21157	1.05767
748.28301	1.03338
746.35444	0.97537
744.42588	0.91699
742.49731	0.88434
740.56875	0.87403
738.64019	0.83085
736.71162	0.74591
734.78306	0.69540
732.85449	0.69242
730.92593	0.63988
728.99736	0.47109
727.06880	0.30467
725.14023	0.18896
723.21167	0.10406
721.28311	0.02761
719.35454	0.01515
717.42598	0.11098
715.49741	0.20534
713.56885	0.20095
711.64028	0.13292
709.71172	0.04721
707.78315	-0.01780
705.85459	-0.02311
703.92603	0.01551
701.99746	0.06057
700.06890	0.08019
698.14033	0.09274
696.21177	0.16782
694.28320	0.28427
692.35464	0.32978
690.42607	0.26852
688.49751	0.20247
686.56895	0.18203
684.64038	0.15923
682.71182	0.10751
680.78325	0.08824
678.85469	0.13795
676.92612	0.17893
674.99756	0.14942
673.06899	0.12122
671.14043	0.12415
669.21187	0.14017
667.28330	0.14196
665.35474	0.13772
663.42617	0.12867
661.49761	0.06674
659.56904	-0.01239
657.64048	-0.02451
655.71191	0.01739
653.78335	0.05313
651.85479	0.08511
649.92622	0.11720
647.99766	0.11607
646.06909	0.09645
644.14053	0.09989
642.21196	0.16142
640.28340	0.25845
638.35483	0.25496
636.42627	0.15934
634.49771	0.10994
632.56914	0.12370
630.64058	0.13121
628.71201	0.09738
626.78345	0.08846
624.85488	0.12539
622.92632	0.13077
620.99775	0.07977
619.06919	0.04363
617.14062	0.07155
615.21206	0.10892
613.28350	0.10839
611.35493	0.09791
609.42637	0.10647
607.49780	0.11994
605.56924	0.10044
603.64067	0.07439
601.71211	0.09113
599.78354	0.09055
597.85498	0.04847
595.92642	0.02119
593.99785	0.03768
592.06929	0.07847
590.14072	0.10943
588.21216	0.10162
586.28359	0.08438
584.35503	0.09079
582.42646	0.09997
580.49790	0.08621
578.56934	0.08009
576.64077	0.09120
574.71221	0.10022
572.78364	0.12162
570.85508	0.15552
568.92651	0.16828
566.99795	0.16483
565.06938	0.15503
563.14082	0.14018
561.21226	0.13632
559.28369	0.13860
557.35513	0.14676
555.42656	0.18206
553.49800	0.21373
551.56943	0.19706
549.64087	0.17790
547.71230	0.14505
545.78374	0.09902
543.85518	0.08126
541.92661	0.06528
539.99805	0.04424
538.06948	0.04602
536.14092	0.06549
534.21235	0.08836
532.28379	0.11888
530.35522	0.13254
528.42666	0.10925
526.49810	0.08658
524.56953	0.08850
522.64097	0.09471
520.71240	0.10924
518.78384	0.15172
516.85527	0.17047
514.92671	0.14660
512.99814	0.13100
511.06958	0.11959
509.14102	0.10110
507.21245	0.09505
505.28389	0.10053
503.35532	0.08301
501.42676	0.05602
499.49819	0.04790
