3997.91411	0.05340
3995.98555	0.05403
3994.05698	0.05418
3992.12842	0.05421
3990.19985	0.05465
3988.27129	0.05536
3986.34272	0.05584
3984.41416	0.05590
3982.48560	0.05565
3980.55703	0.05547
3978.62847	0.05578
3976.69990	0.05662
3974.77134	0.05732
3972.84277	0.05739
3970.91421	0.05718
3968.98564	0.05703
3967.05708	0.05692
3965.12852	0.05700
3963.19995	0.05752
3961.27139	0.05816
3959.34282	0.05838
3957.41426	0.05821
3955.48569	0.05801
3953.55713	0.05791
3951.62856	0.05807
3949.70000	0.05850
3947.77144	0.05891
3945.84287	0.05899
3943.91431	0.05872
3941.98574	0.05865
3940.05718	0.05877
3938.12861	0.05844
3936.20005	0.05801
3934.27148	0.05802
3932.34292	0.05836
3930.41436	0.05880
3928.48579	0.05887
3926.55723	0.05829
3924.62866	0.05780
3922.70010	0.05792
3920.77153	0.05804
3918.84297	0.05785
3916.91440	0.05767
3914.98584	0.05757
3913.05728	0.05739
3911.12871	0.05713
3909.20015	0.05674
3907.27158	0.05658
3905.34302	0.05679
3903.41445	0.05686
3901.48589	0.05669
3899.55732	0.05688
3897.62876	0.05740
3895.70020	0.05765
3893.77163	0.05750
3891.84307	0.05726
3889.91450	0.05704
3887.98594	0.05692
3886.05737	0.05721
3884.12881	0.05797
3882.20024	0.05868
3880.27168	0.05910
3878.34312	0.05921
3876.41455	0.05897
3874.48599	0.05877
3872.55742	0.05896
3870.62886	0.05952
3868.70029	0.06002
3866.77173	0.05971
3864.84316	0.05929
3862.91460	0.05971
3860.98604	0.06048
3859.05747	0.06069
3857.12891	0.06010
3855.20034	0.05934
3853.27178	0.06001
3851.34321	0.06253
3849.41465	0.06360
3847.48608	0.06350
3845.55752	0.06345
3843.62896	0.06372
3841.70039	0.06434
3839.77183	0.06532
3837.84326	0.06653
3835.91470	0.06734
3833.98613	0.06737
3832.05757	0.06730
3830.12900	0.06785
3828.20044	0.06869
3826.27187	0.06928
3824.34331	0.06948
3822.41475	0.06958
3820.48618	0.07080
3818.55762	0.07276
3816.62905	0.07385
3814.70049	0.07513
3812.77192	0.07648
3810.84336	0.07711
3808.91479	0.07745
3806.98623	0.07812
3805.05767	0.07929
3803.12910	0.08045
3801.20054	0.08181
3799.27197	0.08335
3797.34341	0.08432
3795.41484	0.08564
3793.48628	0.08727
3791.55771	0.08840
3789.62915	0.08931
3787.70059	0.09033
3785.77202	0.09146
3783.84346	0.09281
3781.91489	0.09447
3779.98633	0.09619
3778.05776	0.09793
3776.12920	0.09951
3774.20063	0.10085
3772.27207	0.10219
3770.34351	0.10404
3768.41494	0.10658
3766.48638	0.10890
3764.55781	0.11088
3762.62925	0.11281
3760.70068	0.11473
3758.77212	0.11715
3756.84355	0.11973
3754.91499	0.12138
3752.98643	0.12259
3751.05786	0.12471
3749.12930	0.12842
3747.20073	0.13183
3745.27217	0.13481
3743.34360	0.13945
3741.41504	0.14445
3739.48647	0.14839
3737.55791	0.15246
3735.62935	0.15762
3733.70078	0.16388
3731.77222	0.16990
3729.84365	0.17535
3727.91509	0.18037
3725.98652	0.18598
3724.05796	0.19223
3722.12939	0.19807
3720.20083	0.20380
3718.27227	0.20968
3716.34370	0.21590
3714.41514	0.22262
3712.48657	0.23123
3710.55801	0.24451
3708.62944	0.25999
3706.70088	0.27276
3704.77231	0.28411
3702.84375	0.29693
3700.91519	0.31368
3698.98662	0.33218
3697.05806	0.34942
3695.12949	0.36729
3693.20093	0.38599
3691.27236	0.40561
3689.34380	0.43076
3687.41523	0.46383
3685.48667	0.49511
3683.55811	0.52237
3681.62954	0.55053
3679.70098	0.58118
3677.77241	0.61273
3675.84385	0.64975
3673.91528	0.70149
3671.98672	0.74561
3670.05815	0.78418
3668.12959	0.83699
3666.20103	0.88618
3664.27246	0.92727
3662.34390	0.97070
3660.41533	1.01702
3658.48677	1.06242
3656.55820	1.11112
3654.62964	1.16629
3652.70107	1.21245
3650.77251	1.25136
3648.84395	1.30528
3646.91538	1.37448
3644.98682	1.42698
3643.05825	1.46659
3641.12969	1.50640
3639.20112	1.55035
3637.27256	1.59496
3635.34399	1.63861
3633.41543	1.68198
3631.48687	1.72171
3629.55830	1.76093
3627.62974	1.81422
3625.70117	1.86701
3623.77261	1.90258
3621.84404	1.93423
3619.91548	1.96887
3617.98691	2.01183
3616.05835	2.05554
3614.12979	2.09231
3612.20122	2.13040
3610.27266	2.17036
3608.34409	2.21275
3606.41553	2.25793
3604.48696	2.29853
3602.55840	2.33375
3600.62983	2.37184
3598.70127	2.41396
3596.77271	2.45452
3594.84414	2.49409
3592.91558	2.53457
3590.98701	2.57197
3589.05845	2.60554
3587.12988	2.64742
3585.20132	2.69780
3583.27275	2.74165
3581.34419	2.78023
3579.41562	2.82044
3577.48706	2.86378
3575.55850	2.90797
3573.62993	2.95242
3571.70137	2.99493
3569.77280	3.03382
3567.84424	3.07361
3565.91567	3.12414
3563.98711	3.17530
3562.05854	3.21719
3560.12998	3.25903
3558.20142	3.30352
3556.27285	3.34853
3554.34429	3.39289
3552.41572	3.43859
3550.48716	3.48516
3548.55859	3.53080
3546.63003	3.57730
3544.70146	3.62686
3542.77290	3.67692
3540.84434	3.72536
3538.91577	3.77121
3536.98721	3.81453
3535.05864	3.86102
3533.13008	3.90964
3531.20151	3.95691
3529.27295	4.00462
3527.34438	4.05435
3525.41582	4.10277
3523.48726	4.14875
3521.55869	4.19664
3519.63013	4.24558
3517.70156	4.29477
3515.77300	4.34557
3513.84443	4.39590
3511.91587	4.44311
3509.98730	4.49128
3508.05874	4.54173
3506.13018	4.59031
3504.20161	4.63703
3502.27305	4.68278
3500.34448	4.72963
3498.41592	4.77829
3496.48735	4.82373
3494.55879	4.86280
3492.63022	4.90522
3490.70166	4.95945
3488.77310	5.01661
3486.84453	5.06847
3484.91597	5.11997
3482.98740	5.17148
3481.05884	5.21739
3479.13027	5.25780
3477.20171	5.30021
3475.27314	5.34698
3473.34458	5.39245
3471.41602	5.44346
3469.48745	5.50190
3467.55889	5.55332
3465.63032	5.60218
3463.70176	5.65698
3461.77319	5.70700
3459.84463	5.75160
3457.91606	5.79588
3455.98750	5.84040
3454.05894	5.88936
3452.13037	5.94681
3450.20181	6.00567
3448.27324	6.05522
3446.34468	6.10418
3444.41611	6.15938
3442.48755	6.21165
3440.55898	6.24376
3438.63042	6.26838
3436.70186	6.31609
3434.77329	6.37250
3432.84473	6.41035
3430.91616	6.44128
3428.98760	6.48694
3427.05903	6.54217
3425.13047	6.60522
3423.20190	6.68054
3421.27334	6.75514
3419.34478	6.80224
3417.41621	6.83558
3415.48765	6.87920
3413.55908	6.91338
3411.63052	6.94345
3409.70195	6.99024
3407.77339	7.03857
3405.84482	7.06321
3403.91626	7.10154
3401.98770	7.17630
3400.05913	7.24857
3398.13057	7.29240
3396.20200	7.32483
3394.27344	7.37458
3392.34487	7.41453
3390.41631	7.41590
3388.48774	7.39188
3386.55918	7.39476
3384.63062	7.44375
3382.70205	7.51280
3380.77349	7.56582
3378.84492	7.59152
3376.91636	7.62660
3374.98779	7.66735
3373.05923	7.72006
3371.13066	7.77707
3369.20210	7.80118
3367.27354	7.80655
3365.34497	7.82200
3363.41641	7.80139
3361.48784	7.72717
3359.55928	7.70725
3357.63071	7.76171
3355.70215	7.79065
3353.77358	7.76051
3351.84502	7.76671
3349.91646	7.85658
3347.98789	7.96510
3346.05933	8.01724
3344.13076	7.99638
3342.20220	7.93830
3340.27363	7.93805
3338.34507	8.02151
3336.41650	8.08520
3334.48794	8.12089
3332.55937	8.12803
3330.63081	8.04591
3328.70225	7.93388
3326.77368	7.88855
3324.84512	7.91167
3322.91655	7.96934
3320.98799	8.00624
3319.05942	7.98704
3317.13086	8.00361
3315.20229	8.04001
3313.27373	8.02074
3311.34517	8.00302
3309.41660	8.04593
3307.48804	8.06991
3305.55947	8.01402
3303.63091	7.99010
3301.70234	8.05157
3299.77378	8.11515
3297.84521	8.08225
3295.91665	8.02851
3293.98809	8.03489
3292.05952	8.05971
3290.13096	8.04801
3288.20239	8.02518
3286.27383	8.00735
3284.34526	7.95853
3282.41670	7.97671
3280.48813	8.07756
3278.55957	8.15893
3276.63101	8.22690
3274.70244	8.26214
3272.77388	8.20278
3270.84531	8.14956
3268.91675	8.20027
3266.98818	8.24927
3265.05962	8.16659
3263.13105	8.03392
3261.20249	8.02795
3259.27393	8.11967
3257.34536	8.14108
3255.41680	8.11061
3253.48823	8.11762
3251.55967	8.11262
3249.63110	8.06997
3247.70254	8.10609
3245.77397	8.23666
3243.84541	8.25100
3241.91685	8.13639
3239.98828	8.14545
3238.05972	8.21898
3236.13115	8.14745
3234.20259	8.04177
3232.27402	8.04614
3230.34546	8.09539
3228.41689	8.09448
3226.48833	8.08463
3224.55977	8.06399
3222.63120	8.02893
3220.70264	8.03265
3218.77407	8.02427
3216.84551	7.95647
3214.91694	7.88342
3212.98838	7.84352
3211.05981	7.84439
3209.13125	7.87421
3207.20269	7.90021
3205.27412	7.92102
3203.34556	7.89336
3201.41699	7.81186
3199.48843	7.78570
3197.55986	7.78877
3195.63130	7.72519
3193.70273	7.64959
3191.77417	7.58679
3189.84561	7.50929
3187.91704	7.46847
3185.98848	7.45938
3184.05991	7.40506
3182.13135	7.32810
3180.20278	7.27560
3178.27422	7.23119
3176.34565	7.18681
3174.41709	7.12354
3172.48853	7.03799
3170.55996	6.97541
3168.63140	6.93012
3166.70283	6.87075
3164.77427	6.82408
3162.84570	6.79220
3160.91714	6.73482
3158.98857	6.66287
3157.06001	6.60331
3155.13145	6.54280
3153.20288	6.46083
3151.27432	6.38143
3149.34575	6.32007
3147.41719	6.25244
3145.48862	6.18518
3143.56006	6.12920
3141.63149	6.07274
3139.70293	6.00593
3137.77437	5.93110
3135.84580	5.86174
3133.91724	5.79444
3131.98867	5.72210
3130.06011	5.64842
3128.13154	5.57119
3126.20298	5.49513
3124.27441	5.43211
3122.34585	5.37493
3120.41729	5.30983
3118.48872	5.23698
3116.56016	5.16284
3114.63159	5.09289
3112.70303	5.02680
3110.77446	4.95877
3108.84590	4.88594
3106.91733	4.81326
3104.98877	4.74429
3103.06021	4.67572
3101.13164	4.60537
3099.20308	4.53562
3097.27451	4.47044
3095.34595	4.40894
3093.41738	4.34392
3091.48882	4.27440
3089.56025	4.20865
3087.63169	4.14835
3085.70312	4.08811
3083.77456	4.02757
3081.84600	3.96638
3079.91743	3.90270
3077.98887	3.83968
3076.06030	3.77886
3074.13174	3.71930
3072.20317	3.66152
3070.27461	3.60463
3068.34604	3.54669
3066.41748	3.48831
3064.48892	3.43164
3062.56035	3.37642
3060.63179	3.32188
3058.70322	3.26839
3056.77466	3.21512
3054.84609	3.16170
3052.91753	3.10909
3050.98896	3.05703
3049.06040	3.00524
3047.13184	2.95499
3045.20327	2.90617
3043.27471	2.85733
3041.34614	2.80876
3039.41758	2.76078
3037.48901	2.71281
3035.56045	2.66600
3033.63188	2.62083
3031.70332	2.57542
3029.77476	2.53003
3027.84619	2.48671
3025.91763	2.44526
3023.98906	2.40386
3022.06050	2.36219
3020.13193	2.32084
3018.20337	2.27947
3016.27480	2.23821
3014.34624	2.19799
3012.41768	2.15894
3010.48911	2.12059
3008.56055	2.08307
3006.63198	2.04657
3004.70342	2.01076
3002.77485	1.97544
3000.84629	1.94075
2998.91772	1.90654
2996.98916	1.87280
2995.06060	1.84005
2993.13203	1.80850
2991.20347	1.77776
2989.27490	1.74731
2987.34634	1.71733
2985.41777	1.68799
2983.48921	1.65876
2981.56064	1.63000
2979.63208	1.60232
2977.70352	1.57562
2975.77495	1.54964
2973.84639	1.52403
2971.91782	1.49853
2969.98926	1.47322
2968.06069	1.44824
2966.13213	1.42330
2964.20356	1.39841
2962.27500	1.37412
2960.34644	1.35014
2958.41787	1.32615
2956.48931	1.30252
2954.56074	1.27924
2952.63218	1.25628
2950.70361	1.23355
2948.77505	1.21096
2946.84648	1.18900
2944.91792	1.16797
2942.98936	1.14744
2941.06079	1.12724
2939.13223	1.10723
2937.20366	1.08732
2935.27510	1.06789
2933.34653	1.04886
2931.41797	1.02986
2929.48940	1.01079
2927.56084	0.99194
2925.63228	0.97374
2923.70371	0.95607
2921.77515	0.93873
2919.84658	0.92207
2917.91802	0.90586
2915.98945	0.88908
2914.06089	0.87191
2912.13232	0.85563
2910.20376	0.84055
2908.27520	0.82594
2906.34663	0.81141
2904.41807	0.79709
2902.48950	0.78317
2900.56094	0.76967
2898.63237	0.75656
2896.70381	0.74387
2894.77524	0.73164
2892.84668	0.71965
2890.91812	0.70764
2888.98955	0.69598
2887.06099	0.68509
2885.13242	0.67463
2883.20386	0.66419
2881.27529	0.65378
2879.34673	0.64359
2877.41816	0.63354
2875.48960	0.62354
2873.56104	0.61355
2871.63247	0.60322
2869.70391	0.59241
2867.77534	0.58156
2865.84678	0.57081
2863.91821	0.55994
2861.98965	0.54912
2860.06108	0.53872
2858.13252	0.52889
2856.20396	0.51943
2854.27539	0.51028
2852.34683	0.50154
2850.41826	0.49295
2848.48970	0.48438
2846.56113	0.47634
2844.63257	0.46906
2842.70400	0.46203
2840.77544	0.45499
2838.84687	0.44842
2836.91831	0.44246
2834.98975	0.43651
2833.06118	0.43018
2831.13262	0.42391
2829.20405	0.41801
2827.27549	0.41216
2825.34692	0.40615
2823.41836	0.40007
2821.48979	0.39410
2819.56123	0.38826
2817.63267	0.38252
2815.70410	0.37697
2813.77554	0.37145
2811.84697	0.36581
2809.91841	0.36031
2807.98984	0.35506
2806.06128	0.34992
2804.13271	0.34488
2802.20415	0.33980
2800.27559	0.33471
2798.34702	0.32991
2796.41846	0.32531
2794.48989	0.32067
2792.56133	0.31596
2790.63276	0.31133
2788.70420	0.30699
2786.77563	0.30288
2784.84707	0.29867
2782.91851	0.29426
2780.98994	0.28999
2779.06138	0.28616
2777.13281	0.28250
2775.20425	0.27869
2773.27568	0.27483
2771.34712	0.27113
2769.41855	0.26762
2767.48999	0.26411
2765.56143	0.26050
2763.63286	0.25694
2761.70430	0.25363
2759.77573	0.25053
2757.84717	0.24747
2755.91860	0.24437
2753.99004	0.24134
2752.06147	0.23851
2750.13291	0.23568
2748.20435	0.23273
2746.27578	0.22985
2744.34722	0.22717
2742.41865	0.22457
2740.49009	0.22196
2738.56152	0.21943
2736.63296	0.21702
2734.70439	0.21469
2732.77583	0.21238
2730.84727	0.21003
2728.91870	0.20766
2726.99014	0.20548
2725.06157	0.20337
2723.13301	0.20115
2721.20444	0.19898
2719.27588	0.19701
2717.34731	0.19512
2715.41875	0.19325
2713.49019	0.19152
2711.56162	0.18990
2709.63306	0.18812
2707.70449	0.18621
2705.77593	0.18444
2703.84736	0.18288
2701.91880	0.18133
2699.99023	0.17964
2698.06167	0.17803
2696.13311	0.17667
2694.20454	0.17534
2692.27598	0.17385
2690.34741	0.17240
2688.41885	0.17120
2686.49028	0.17005
2684.56172	0.16886
2682.63315	0.16777
2680.70459	0.16668
2678.77603	0.16542
2676.84746	0.16410
2674.91890	0.16289
2672.99033	0.16173
2671.06177	0.16064
2669.13320	0.15960
2667.20464	0.15852
2665.27607	0.15748
2663.34751	0.15663
2661.41895	0.15591
2659.49038	0.15512
2657.56182	0.15431
2655.63325	0.15353
2653.70469	0.15280
2651.77612	0.15216
2649.84756	0.15154
2647.91899	0.15080
2645.99043	0.15003
2644.06187	0.14950
2642.13330	0.14914
2640.20474	0.14869
2638.27617	0.14807
2636.34761	0.14747
2634.41904	0.14692
2632.49048	0.14641
2630.56191	0.14602
2628.63335	0.14572
2626.70479	0.14542
2624.77622	0.14510
2622.84766	0.14479
2620.91909	0.14442
2618.99053	0.14408
2617.06196	0.14394
2615.13340	0.14386
2613.20483	0.14363
2611.27627	0.14340
2609.34771	0.14330
2607.41914	0.14322
2605.49058	0.14307
2603.56201	0.14287
2601.63345	0.14272
2599.70488	0.14272
2597.77632	0.14294
2595.84775	0.14316
2593.91919	0.14327
2591.99062	0.14332
2590.06206	0.14330
2588.13350	0.14326
2586.20493	0.14336
2584.27637	0.14371
2582.34780	0.14415
2580.41924	0.14443
2578.49067	0.14467
2576.56211	0.14502
2574.63354	0.14535
2572.70498	0.14563
2570.77642	0.14585
2568.84785	0.14605
2566.91929	0.14642
2564.99072	0.14701
2563.06216	0.14758
2561.13359	0.14803
2559.20503	0.14838
2557.27646	0.14873
2555.34790	0.14922
2553.41934	0.14970
2551.49077	0.15016
2549.56221	0.15076
2547.63364	0.15143
2545.70508	0.15195
2543.77651	0.15249
2541.84795	0.15325
2539.91938	0.15401
2537.99082	0.15456
2536.06226	0.15507
2534.13369	0.15567
2532.20513	0.15634
2530.27656	0.15706
2528.34800	0.15782
2526.41943	0.15849
2524.49087	0.15906
2522.56230	0.15972
2520.63374	0.16057
2518.70518	0.16135
2516.77661	0.16199
2514.84805	0.16266
2512.91948	0.16344
2510.99092	0.16440
2509.06235	0.16545
2507.13379	0.16633
2505.20522	0.16708
2503.27666	0.16784
2501.34810	0.16859
2499.41953	0.16932
2497.49097	0.17011
2495.56240	0.17087
2493.63384	0.17151
2491.70527	0.17222
2489.77671	0.17312
2487.84814	0.17412
2485.91958	0.17503
2483.99102	0.17585
2482.06245	0.17676
2480.13389	0.17769
2478.20532	0.17855
2476.27676	0.17943
2474.34819	0.18036
2472.41963	0.18132
2470.49106	0.18228
2468.56250	0.18321
2466.63394	0.18402
2464.70537	0.18475
2462.77681	0.18564
2460.84824	0.18667
2458.91968	0.18760
2456.99111	0.18846
2455.06255	0.18942
2453.13398	0.19044
2451.20542	0.19146
2449.27686	0.19241
2447.34829	0.19334
2445.41973	0.19434
2443.49116	0.19535
2441.56260	0.19637
2439.63403	0.19749
2437.70547	0.19859
2435.77690	0.19947
2433.84834	0.20026
2431.91978	0.20122
2429.99121	0.20235
2428.06265	0.20347
2426.13408	0.20461
2424.20552	0.20580
2422.27695	0.20697
2420.34839	0.20808
2418.41982	0.20913
2416.49126	0.21016
2414.56270	0.21125
2412.63413	0.21239
2410.70557	0.21350
2408.77700	0.21455
2406.84844	0.21557
2404.91987	0.21667
2402.99131	0.21793
2401.06274	0.21923
2399.13418	0.22046
2397.20562	0.22171
2395.27705	0.22309
2393.34849	0.22449
2391.41992	0.22587
2389.49136	0.22737
2387.56279	0.22926
2385.63423	0.23191
2383.70566	0.23571
2381.77710	0.24087
2379.84854	0.24723
2377.91997	0.25432
2375.99141	0.26215
2374.06284	0.27107
2372.13428	0.28093
2370.20571	0.29162
2368.27715	0.30252
2366.34858	0.31251
2364.42002	0.32146
2362.49146	0.32922
2360.56289	0.33455
2358.63433	0.33573
2356.70576	0.33210
2354.77720	0.32540
2352.84863	0.31687
2350.92007	0.30750
2348.99150	0.30171
2347.06294	0.30276
2345.13437	0.31060
2343.20581	0.32033
2341.27725	0.32556
2339.34868	0.32666
2337.42012	0.32657
2335.49155	0.32672
2333.56299	0.32702
2331.63442	0.32757
2329.70586	0.32789
2327.77729	0.32714
2325.84873	0.32556
2323.92017	0.32382
2321.99160	0.32197
2320.06304	0.31958
2318.13447	0.31691
2316.20591	0.31470
2314.27734	0.31342
2312.34878	0.31297
2310.42021	0.31274
2308.49165	0.31221
2306.56309	0.31137
2304.63452	0.31064
2302.70596	0.31052
2300.77739	0.31089
2298.84883	0.31133
2296.92026	0.31185
2294.99170	0.31249
2293.06313	0.31310
2291.13457	0.31371
2289.20601	0.31455
2287.27744	0.31554
2285.34888	0.31651
2283.42031	0.31773
2281.49175	0.31946
2279.56318	0.32164
2277.63462	0.32399
2275.70605	0.32628
2273.77749	0.32859
2271.84893	0.33090
2269.92036	0.33303
2267.99180	0.33500
2266.06323	0.33692
2264.13467	0.33883
2262.20610	0.34073
2260.27754	0.34264
2258.34897	0.34455
2256.42041	0.34641
2254.49185	0.34827
2252.56328	0.35021
2250.63472	0.35226
2248.70615	0.35436
2246.77759	0.35643
2244.84902	0.35853
2242.92046	0.36074
2240.99189	0.36300
2239.06333	0.36518
2237.13477	0.36728
2235.20620	0.36943
2233.27764	0.37163
2231.34907	0.37380
2229.42051	0.37600
2227.49194	0.37823
2225.56338	0.38035
2223.63481	0.38255
2221.70625	0.38496
2219.77769	0.38736
2217.84912	0.38952
2215.92056	0.39154
2213.99199	0.39367
2212.06343	0.39590
2210.13486	0.39808
2208.20630	0.40015
2206.27773	0.40221
2204.34917	0.40436
2202.42061	0.40650
2200.49204	0.40849
2198.56348	0.41043
2196.63491	0.41244
2194.70635	0.41442
2192.77778	0.41629
2190.84922	0.41817
2188.92065	0.42010
2186.99209	0.42197
2185.06353	0.42378
2183.13496	0.42553
2181.20640	0.42718
2179.27783	0.42874
2177.34927	0.43027
2175.42070	0.43181
2173.49214	0.43333
2171.56357	0.43480
2169.63501	0.43627
2167.70645	0.43772
2165.77788	0.43902
2163.84932	0.44014
2161.92075	0.44114
2159.99219	0.44216
2158.06362	0.44322
2156.13506	0.44429
2154.20649	0.44526
2152.27793	0.44606
2150.34937	0.44682
2148.42080	0.44760
2146.49224	0.44818
2144.56367	0.44851
2142.63511	0.44888
2140.70654	0.44936
2138.77798	0.44980
2136.84941	0.45002
2134.92085	0.45005
2132.99229	0.45001
2131.06372	0.44989
2129.13516	0.44971
2127.20659	0.44950
2125.27803	0.44918
2123.34946	0.44863
2121.42090	0.44804
2119.49233	0.44746
2117.56377	0.44682
2115.63521	0.44617
2113.70664	0.44554
2111.77808	0.44477
2109.84951	0.44384
2107.92095	0.44288
2105.99238	0.44183
2104.06382	0.44060
2102.13525	0.43930
2100.20669	0.43802
2098.27812	0.43660
2096.34956	0.43504
2094.42100	0.43341
2092.49243	0.43177
2090.56387	0.43009
2088.63530	0.42834
2086.70674	0.42663
2084.77817	0.42489
2082.84961	0.42301
2080.92104	0.42101
2078.99248	0.41896
2077.06392	0.41687
2075.13535	0.41473
2073.20679	0.41256
2071.27822	0.41040
2069.34966	0.40822
2067.42109	0.40591
2065.49253	0.40351
2063.56396	0.40109
2061.63540	0.39870
2059.70684	0.39632
2057.77827	0.39383
2055.84971	0.39120
2053.92114	0.38857
2051.99258	0.38598
2050.06401	0.38346
2048.13545	0.38095
2046.20688	0.37832
2044.27832	0.37558
2042.34976	0.37286
2040.42119	0.37023
2038.49263	0.36761
2036.56406	0.36485
2034.63550	0.36202
2032.70693	0.35919
2030.77837	0.35636
2028.84980	0.35351
2026.92124	0.35074
2024.99268	0.34799
2023.06411	0.34533
2021.13555	0.34270
2019.20698	0.33992
2017.27842	0.33702
2015.34985	0.33414
2013.42129	0.33138
2011.49272	0.32875
2009.56416	0.32615
2007.63560	0.32343
2005.70703	0.32063
2003.77847	0.31796
2001.84990	0.31543
1999.92134	0.31283
1997.99277	0.31020
1996.06421	0.30762
1994.13564	0.30510
1992.20708	0.30256
1990.27852	0.30000
1988.34995	0.29751
1986.42139	0.29509
1984.49282	0.29270
1982.56426	0.29034
1980.63569	0.28802
1978.70713	0.28583
1976.77856	0.28368
1974.85000	0.28148
1972.92144	0.27923
1970.99287	0.27710
1969.06431	0.27515
1967.13574	0.27320
1965.20718	0.27108
1963.27861	0.26895
1961.35005	0.26697
1959.42148	0.26510
1957.49292	0.26328
1955.56436	0.26145
1953.63579	0.25963
1951.70723	0.25791
1949.77866	0.25632
1947.85010	0.25483
1945.92153	0.25340
1943.99297	0.25193
1942.06440	0.25036
1940.13584	0.24879
1938.20728	0.24736
1936.27871	0.24611
1934.35015	0.24495
1932.42158	0.24376
1930.49302	0.24254
1928.56445	0.24136
1926.63589	0.24023
1924.70732	0.23920
1922.77876	0.23823
1920.85020	0.23718
1918.92163	0.23622
1916.99307	0.23543
1915.06450	0.23463
1913.13594	0.23382
1911.20737	0.23315
1909.27881	0.23249
1907.35024	0.23179
1905.42168	0.23114
1903.49312	0.23052
1901.56455	0.22992
1899.63599	0.22940
1897.70742	0.22897
1895.77886	0.22853
1893.85029	0.22813
1891.92173	0.22780
1889.99316	0.22766
1888.06460	0.22751
1886.13604	0.22724
1884.20747	0.22703
1882.27891	0.22691
1880.35034	0.22679
1878.42178	0.22663
1876.49321	0.22657
1874.56465	0.22657
1872.63608	0.22670
1870.70752	0.22687
1868.77896	0.22716
1866.85039	0.22741
1864.92183	0.22759
1862.99326	0.22781
1861.06470	0.22800
1859.13613	0.22828
1857.20757	0.22866
1855.27900	0.22914
1853.35044	0.22960
1851.42187	0.23010
1849.49331	0.23063
1847.56475	0.23124
1845.63618	0.23198
1843.70762	0.23296
1841.77905	0.23386
1839.85049	0.23442
1837.92192	0.23516
1835.99336	0.23606
1834.06479	0.23701
1832.13623	0.23796
1830.20767	0.23929
1828.27910	0.24082
1826.35054	0.24194
1824.42197	0.24319
1822.49341	0.24455
1820.56484	0.24583
1818.63628	0.24716
1816.70771	0.24875
1814.77915	0.25038
1812.85059	0.25214
1810.92202	0.25422
1808.99346	0.25629
1807.06489	0.25813
1805.13633	0.25992
1803.20776	0.26206
1801.27920	0.26463
1799.35063	0.26760
1797.42207	0.27027
1795.49351	0.27266
1793.56494	0.27531
1791.63638	0.27885
1789.70781	0.28245
1787.77925	0.28514
1785.85068	0.28817
1783.92212	0.29182
1781.99355	0.29577
1780.06499	0.29999
1778.13643	0.30435
1776.20786	0.30839
1774.27930	0.31260
1772.35073	0.31822
1770.42217	0.32447
1768.49360	0.32989
1766.56504	0.33513
1764.63647	0.34047
1762.70791	0.34629
1760.77935	0.35376
1758.85078	0.36086
1756.92222	0.36789
1754.99365	0.37552
1753.06509	0.38237
1751.13652	0.39038
1749.20796	0.40066
1747.27939	0.41123
1745.35083	0.42067
1743.42227	0.43044
1741.49370	0.44101
1739.56514	0.45351
1737.63657	0.46608
1735.70801	0.47681
1733.77944	0.49279
1731.85088	0.51253
1729.92231	0.52838
1727.99375	0.54427
1726.06519	0.56128
1724.13662	0.57986
1722.20806	0.59994
1720.27949	0.61817
1718.35093	0.63894
1716.42236	0.67017
1714.49380	0.70115
1712.56523	0.72667
1710.63667	0.75111
1708.70811	0.77699
1706.77954	0.80611
1704.85098	0.84103
1702.92241	0.87230
1700.99385	0.90298
1699.06528	0.94908
1697.13672	0.99222
1695.20815	1.03663
1693.27959	1.07981
1691.35103	1.11444
1689.42246	1.15412
1687.49390	1.19569
1685.56533	1.23503
1683.63677	1.29674
1681.70820	1.36376
1679.77964	1.40749
1677.85107	1.44791
1675.92251	1.49352
1673.99395	1.55054
1672.06538	1.60188
1670.13682	1.65165
1668.20825	1.71647
1666.27969	1.76961
1664.35112	1.81404
1662.42256	1.86959
1660.49399	1.93321
1658.56543	1.98302
1656.63687	2.02263
1654.70830	2.05708
1652.77974	2.10957
1650.85117	2.16441
1648.92261	2.18517
1646.99404	2.20861
1645.06548	2.23881
1643.13691	2.26136
1641.20835	2.27295
1639.27979	2.28086
1637.35122	2.28322
1635.42266	2.28081
1633.49409	2.27772
1631.56553	2.26867
1629.63696	2.25305
1627.70840	2.22482
1625.77983	2.19190
1623.85127	2.15080
1621.92271	2.10042
1619.99414	2.05567
1618.06558	2.01219
1616.13701	1.95002
1614.20845	1.88618
1612.27988	1.83734
1610.35132	1.78645
1608.42275	1.73117
1606.49419	1.67662
1604.56562	1.62720
1602.63706	1.58034
1600.70850	1.53424
1598.77993	1.49119
1596.85137	1.45068
1594.92280	1.41145
1592.99424	1.37349
1591.06567	1.33847
1589.13711	1.30532
1587.20854	1.27443
1585.27998	1.24595
1583.35142	1.21925
1581.42285	1.19481
1579.49429	1.17379
1577.56572	1.15470
1575.63716	1.13188
1573.70859	1.11230
1571.78003	1.09956
1569.85146	1.08626
1567.92290	1.07158
1565.99434	1.06050
1564.06577	1.05218
1562.13721	1.04585
1560.20864	1.04099
1558.28008	1.03547
1556.35151	1.03242
1554.42295	1.03062
1552.49438	1.02847
1550.56582	1.02515
1548.63726	1.01998
1546.70869	1.01333
1544.78013	1.00440
1542.85156	0.99272
1540.92300	0.97642
1538.99443	0.95195
1537.06587	0.93435
1535.13730	0.92221
1533.20874	0.90588
1531.28018	0.88850
1529.35161	0.87591
1527.42305	0.86406
1525.49448	0.85179
1523.56592	0.84115
1521.63735	0.83075
1519.70879	0.82045
1517.78022	0.81186
1515.85166	0.80208
1513.92310	0.79204
1511.99453	0.78325
1510.06597	0.77491
1508.13740	0.76647
1506.20884	0.75444
1504.28027	0.74457
1502.35171	0.73887
1500.42314	0.73375
1498.49458	0.72818
1496.56602	0.72163
1494.63745	0.71546
1492.70889	0.71090
1490.78032	0.70682
1488.85176	0.70210
1486.92319	0.69783
1484.99463	0.69459
1483.06606	0.69208
1481.13750	0.69007
1479.20894	0.68858
1477.28037	0.68767
1475.35181	0.68711
1473.42324	0.68675
1471.49468	0.68597
1469.56611	0.68439
1467.63755	0.68251
1465.70898	0.68069
1463.78042	0.67907
1461.85186	0.67790
1459.92329	0.67707
1457.99473	0.67610
1456.06616	0.67465
1454.13760	0.67277
1452.20903	0.67054
1450.28047	0.66790
1448.35190	0.66508
1446.42334	0.66229
1444.49478	0.65970
1442.56621	0.65714
1440.63765	0.65453
1438.70908	0.65195
1436.78052	0.64890
1434.85195	0.64555
1432.92339	0.64308
1430.99482	0.64143
1429.06626	0.64030
1427.13770	0.63956
1425.20913	0.63922
1423.28057	0.63923
1421.35200	0.63916
1419.42344	0.63879
1417.49487	0.63819
1415.56631	0.63724
1413.63774	0.63632
1411.70918	0.63573
1409.78062	0.63556
1407.85205	0.63578
1405.92349	0.63610
1403.99492	0.63631
1402.06636	0.63609
1400.13779	0.63520
1398.20923	0.63363
1396.28066	0.63144
1394.35210	0.62839
1392.42354	0.62492
1390.49497	0.62178
1388.56641	0.61865
1386.63784	0.61493
1384.70928	0.61102
1382.78071	0.60748
1380.85215	0.60429
1378.92358	0.60155
1376.99502	0.59939
1375.06646	0.59787
1373.13789	0.59687
1371.20933	0.59620
1369.28076	0.59560
1367.35220	0.59480
1365.42363	0.59367
1363.49507	0.59219
1361.56650	0.59053
1359.63794	0.58907
1357.70937	0.58790
1355.78081	0.58684
1353.85225	0.58580
1351.92368	0.58467
1349.99512	0.58356
1348.06655	0.58262
1346.13799	0.58181
1344.20942	0.58092
1342.28086	0.57986
1340.35229	0.57892
1338.42373	0.57819
1336.49517	0.57738
1334.56660	0.57666
1332.63804	0.57635
1330.70947	0.57632
1328.78091	0.57634
1326.85234	0.57645
1324.92378	0.57666
1322.99521	0.57694
1321.06665	0.57719
1319.13809	0.57729
1317.20952	0.57722
1315.28096	0.57693
1313.35239	0.57641
1311.42383	0.57577
1309.49526	0.57509
1307.56670	0.57433
1305.63813	0.57346
1303.70957	0.57247
1301.78101	0.57141
1299.85244	0.57037
1297.92388	0.56943
1295.99531	0.56839
1294.06675	0.56720
1292.13818	0.56605
1290.20962	0.56501
1288.28105	0.56407
1286.35249	0.56306
1284.42393	0.56191
1282.49536	0.56079
1280.56680	0.55966
1278.63823	0.55840
1276.70967	0.55723
1274.78110	0.55630
1272.85254	0.55555
1270.92397	0.55494
1268.99541	0.55442
1267.06685	0.55382
1265.13828	0.55303
1263.20972	0.55223
1261.28115	0.55160
1259.35259	0.55106
1257.42402	0.55053
1255.49546	0.55001
1253.56689	0.54960
1251.63833	0.54939
1249.70977	0.54930
1247.78120	0.54908
1245.85264	0.54870
1243.92407	0.54818
1241.99551	0.54743
1240.06694	0.54647
1238.13838	0.54521
1236.20981	0.54364
1234.28125	0.54199
1232.35269	0.54025
1230.42412	0.53836
1228.49556	0.53662
1226.56699	0.53509
1224.63843	0.53356
1222.70986	0.53194
1220.78130	0.53038
1218.85273	0.52911
1216.92417	0.52816
1214.99561	0.52727
1213.06704	0.52638
1211.13848	0.52569
1209.20991	0.52514
1207.28135	0.52464
1205.35278	0.52409
1203.42422	0.52333
1201.49565	0.52243
1199.56709	0.52152
1197.63853	0.52055
1195.70996	0.51969
1193.78140	0.51910
1191.85283	0.51860
1189.92427	0.51808
1187.99570	0.51773
1186.06714	0.51766
1184.13857	0.51783
1182.21001	0.51819
1180.28145	0.51870
1178.35288	0.51942
1176.42432	0.52062
1174.49575	0.52223
1172.56719	0.52360
1170.63862	0.52445
1168.71006	0.52508
1166.78149	0.52569
1164.85293	0.52631
1162.92437	0.52684
1160.99580	0.52723
1159.06724	0.52748
1157.13867	0.52747
1155.21011	0.52703
1153.28154	0.52600
1151.35298	0.52440
1149.42441	0.52212
1147.49585	0.51920
1145.56729	0.51622
1143.63872	0.51344
1141.71016	0.51079
1139.78159	0.50845
1137.85303	0.50668
1135.92446	0.50566
1133.99590	0.50534
1132.06733	0.50538
1130.13877	0.50532
1128.21021	0.50506
1126.28164	0.50475
1124.35308	0.50447
1122.42451	0.50414
1120.49595	0.50396
1118.56738	0.50432
1116.63882	0.50494
1114.71025	0.50539
1112.78169	0.50579
1110.85312	0.50628
1108.92456	0.50691
1106.99600	0.50780
1105.06743	0.50876
1103.13887	0.50963
1101.21030	0.51065
1099.28174	0.51189
1097.35317	0.51354
1095.42461	0.51609
1093.49604	0.51974
1091.56748	0.52458
1089.63892	0.53092
1087.71035	0.53887
1085.78179	0.54788
1083.85322	0.55694
1081.92466	0.56507
1079.99609	0.57108
1078.06753	0.57371
1076.13896	0.57286
1074.21040	0.56938
1072.28184	0.56399
1070.35327	0.55711
1068.42471	0.54937
1066.49614	0.54194
1064.56758	0.53570
1062.63901	0.53052
1060.71045	0.52582
1058.78188	0.52146
1056.85332	0.51758
1054.92476	0.51425
1052.99619	0.51139
1051.06763	0.50932
1049.13906	0.50832
1047.21050	0.50798
1045.28193	0.50801
1043.35337	0.50843
1041.42480	0.50893
1039.49624	0.50920
1037.56768	0.50928
1035.63911	0.50929
1033.71055	0.50904
1031.78198	0.50795
1029.85342	0.50592
1027.92485	0.50373
1025.99629	0.50189
1024.06772	0.50040
1022.13916	0.49932
1020.21060	0.49876
1018.28203	0.49863
1016.35347	0.49855
1014.42490	0.49826
1012.49634	0.49770
1010.56777	0.49699
1008.63921	0.49647
1006.71064	0.49663
1004.78208	0.49762
1002.85352	0.49921
1000.92495	0.50136
998.99639	0.50432
997.06782	0.50820
995.13926	0.51272
993.21069	0.51705
991.28213	0.52029
989.35356	0.52221
987.42500	0.52299
985.49644	0.52288
983.56787	0.52253
981.63931	0.52260
979.71074	0.52321
977.78218	0.52445
975.85361	0.52636
973.92505	0.52876
971.99648	0.53169
970.06792	0.53506
968.13936	0.53854
966.21079	0.54220
964.28223	0.54639
962.35366	0.55107
960.42510	0.55608
958.49653	0.56145
956.56797	0.56714
954.63940	0.57304
952.71084	0.57913
950.78228	0.58562
948.85371	0.59231
946.92515	0.59858
944.99658	0.60447
943.06802	0.61028
941.13945	0.61597
939.21089	0.62164
937.28232	0.62760
935.35376	0.63356
933.42520	0.63905
931.49663	0.64455
929.56807	0.65046
927.63950	0.65653
925.71094	0.66261
923.78237	0.66879
921.85381	0.67535
919.92524	0.68222
917.99668	0.68909
916.06812	0.69588
914.13955	0.70255
912.21099	0.70992
910.28242	0.71797
908.35386	0.72554
906.42529	0.73335
904.49673	0.74208
902.56816	0.75125
900.63960	0.76123
898.71104	0.77151
896.78247	0.78141
894.85391	0.79142
892.92534	0.80104
890.99678	0.81062
889.06821	0.82154
887.13965	0.83366
885.21108	0.84665
883.28252	0.85892
881.35396	0.86843
879.42539	0.87709
877.49683	0.88759
875.56826	0.89924
873.63970	0.91067
871.71113	0.92186
869.78257	0.93265
867.85400	0.94341
865.92544	0.95507
863.99687	0.96734
862.06831	0.98001
860.13975	0.99279
858.21118	1.00509
856.28262	1.01684
854.35405	1.02776
852.42549	1.03766
850.49692	1.04784
848.56836	1.05948
846.63979	1.07101
844.71123	1.08181
842.78267	1.09402
840.85410	1.10649
838.92554	1.11622
836.99697	1.12543
835.06841	1.13600
833.13984	1.14581
831.21128	1.15458
829.28271	1.16362
827.35415	1.17491
825.42559	1.18748
823.49702	1.19538
821.56846	1.19846
819.63989	1.20549
817.71133	1.21720
815.78276	1.22705
813.85420	1.23491
811.92563	1.24403
809.99707	1.25563
808.06851	1.26287
806.13994	1.26282
804.21138	1.26852
802.28281	1.28662
800.35425	1.30334
798.42568	1.30855
796.49712	1.30716
794.56855	1.29677
792.63999	1.28139
790.71143	1.27169
788.78286	1.26447
786.85430	1.26417
784.92573	1.28850
782.99717	1.31917
781.06860	1.29555
779.14004	1.24984
777.21147	1.27754
775.28291	1.37934
773.35435	1.42640
771.42578	1.36615
769.49722	1.27812
767.56865	1.20929
765.64009	1.18964
763.71152	1.23263
761.78296	1.27439
759.85439	1.21730
757.92583	1.14577
755.99727	1.09679
754.06870	1.04660
752.14014	1.05150
750.21157	1.09069
748.28301	1.09676
746.35444	1.12361
744.42588	1.08469
742.49731	0.93978
740.56875	0.83683
738.64019	0.77729
736.71162	0.72778
734.78306	0.62477
732.85449	0.35248
730.92593	0.04221
728.99736	-0.34789
727.06880	4.36241
725.14023	4.35084
723.21167	4.33927
721.28311	4.32770
719.35454	-0.06740
717.42598	0.23113
715.49741	0.24372
713.56885	0.29357
711.64028	0.35484
709.71172	0.40643
707.78315	0.49056
705.85459	0.56945
703.92603	0.57858
701.99746	0.60000
700.06890	0.64169
698.14033	0.61866
696.21177	0.55696
694.28320	0.52116
692.35464	0.48078
690.42607	0.45182
688.49751	0.47952
686.56895	0.52105
684.64038	0.56894
682.71182	0.67943
680.78325	0.71861
678.85469	0.60318
676.92612	0.51964
674.99756	0.49373
673.06899	0.47676
671.14043	0.44251
669.21187	0.42736
667.28330	0.44435
665.35474	0.47738
663.42617	0.50932
661.49761	0.47006
659.56904	0.39675
657.64048	0.39771
655.71191	0.45673
653.78335	0.49886
651.85479	0.50898
649.92622	0.50359
647.99766	0.50292
646.06909	0.55968
644.14053	0.68235
642.21196	0.68305
640.28340	0.60980
638.35483	0.58527
636.42627	0.55477
634.49771	0.55104
632.56914	0.56782
630.64058	0.52156
628.71201	0.46185
626.78345	0.43303
624.85488	0.42596
622.92632	0.41726
620.99775	0.40630
619.06919	0.42514
617.14062	0.46369
615.21206	0.48162
613.28350	0.50880
611.35493	0.54714
609.42637	0.56204
607.49780	0.55496
605.56924	0.50926
603.64067	0.46547
601.71211	0.43987
599.78354	0.41238
597.85498	0.40677
595.92642	0.43059
593.99785	0.44324
592.06929	0.44054
590.14072	0.44970
588.21216	0.47491
586.28359	0.49359
584.35503	0.47918
582.42646	0.44180
580.49790	0.38994
578.56934	0.35440
576.64077	0.35724
574.71221	0.39929
572.78364	0.50031
570.85508	0.58337
568.92651	0.50393
566.99795	0.41026
565.06938	0.40305
563.14082	0.46706
561.21226	0.48449
559.28369	0.40524
557.35513	0.34584
555.42656	0.35621
553.49800	0.44244
551.56943	0.52421
549.64087	0.47183
547.71230	0.40180
545.78374	0.40825
543.85518	0.49593
541.92661	0.57939
539.99805	0.53106
538.06948	0.50584
536.14092	0.54370
534.21235	0.57730
532.28379	0.64048
530.35522	0.70899
528.42666	0.58153
526.49810	0.45537
524.56953	0.41531
522.64097	0.39416
520.71240	0.34764
518.78384	0.31230
516.85527	0.32758
514.92671	0.38695
512.99814	0.43583
511.06958	0.43676
509.14102	0.42084
507.21245	0.39405
505.28389	0.35639
503.35532	0.34085
501.42676	0.36253
499.49819	0.37423
