3997.91411	0.06233
3995.98555	0.06263
3994.05698	0.06265
3992.12842	0.06277
3990.19985	0.06299
3988.27129	0.06317
3986.34272	0.06337
3984.41416	0.06367
3982.48560	0.06390
3980.55703	0.06405
3978.62847	0.06426
3976.69990	0.06474
3974.77134	0.06538
3972.84277	0.06578
3970.91421	0.06596
3968.98564	0.06623
3967.05708	0.06642
3965.12852	0.06645
3963.19995	0.06679
3961.27139	0.06744
3959.34282	0.06764
3957.41426	0.06737
3955.48569	0.06724
3953.55713	0.06723
3951.62856	0.06742
3949.70000	0.06814
3947.77144	0.06909
3945.84287	0.06936
3943.91431	0.06890
3941.98574	0.06843
3940.05718	0.06792
3938.12861	0.06716
3936.20005	0.06677
3934.27148	0.06747
3932.34292	0.06875
3930.41436	0.06931
3928.48579	0.06874
3926.55723	0.06798
3924.62866	0.06794
3922.70010	0.06827
3920.77153	0.06824
3918.84297	0.06809
3916.91440	0.06796
3914.98584	0.06738
3913.05728	0.06653
3911.12871	0.06604
3909.20015	0.06587
3907.27158	0.06612
3905.34302	0.06719
3903.41445	0.06878
3901.48589	0.06975
3899.55732	0.06973
3897.62876	0.06913
3895.70020	0.06799
3893.77163	0.06728
3891.84307	0.06779
3889.91450	0.06820
3887.98594	0.06751
3886.05737	0.06752
3884.12881	0.06869
3882.20024	0.06958
3880.27168	0.06989
3878.34312	0.06942
3876.41455	0.06856
3874.48599	0.06870
3872.55742	0.07017
3870.62886	0.07196
3868.70029	0.07236
3866.77173	0.07113
3864.84316	0.07096
3862.91460	0.07226
3860.98604	0.07250
3859.05747	0.07154
3857.12891	0.07099
3855.20034	0.07158
3853.27178	0.07420
3851.34321	0.07695
3849.41465	0.07582
3847.48608	0.07389
3845.55752	0.07346
3843.62896	0.07464
3841.70039	0.07666
3839.77183	0.07871
3837.84326	0.08026
3835.91470	0.08054
3833.98613	0.07984
3832.05757	0.07937
3830.12900	0.07947
3828.20044	0.07990
3826.27187	0.08064
3824.34331	0.08119
3822.41475	0.08190
3820.48618	0.08399
3818.55762	0.08575
3816.62905	0.08627
3814.70049	0.08702
3812.77192	0.08711
3810.84336	0.08673
3808.91479	0.08732
3806.98623	0.08924
3805.05767	0.09137
3803.12910	0.09297
3801.20054	0.09499
3799.27197	0.09646
3797.34341	0.09655
3795.41484	0.09688
3793.48628	0.09727
3791.55771	0.09754
3789.62915	0.09836
3787.70059	0.09956
3785.77202	0.10106
3783.84346	0.10301
3781.91489	0.10487
3779.98633	0.10664
3778.05776	0.10849
3776.12920	0.10967
3774.20063	0.11074
3772.27207	0.11247
3770.34351	0.11476
3768.41494	0.11710
3766.48638	0.11904
3764.55781	0.12092
3762.62925	0.12267
3760.70068	0.12493
3758.77212	0.12839
3756.84355	0.13141
3754.91499	0.13314
3752.98643	0.13565
3751.05786	0.14030
3749.12930	0.14535
3747.20073	0.14815
3745.27217	0.15076
3743.34360	0.15534
3741.41504	0.16000
3739.48647	0.16408
3737.55791	0.16960
3735.62935	0.17766
3733.70078	0.18628
3731.77222	0.19196
3729.84365	0.19649
3727.91509	0.20168
3725.98652	0.20793
3724.05796	0.21408
3722.12939	0.21913
3720.20083	0.22381
3718.27227	0.22790
3716.34370	0.23189
3714.41514	0.23734
3712.48657	0.24678
3710.55801	0.26258
3708.62944	0.27904
3706.70088	0.29074
3704.77231	0.30146
3702.84375	0.31449
3700.91519	0.33121
3698.98662	0.34906
3697.05806	0.36590
3695.12949	0.38387
3693.20093	0.40315
3691.27236	0.42396
3689.34380	0.45007
3687.41523	0.48244
3685.48667	0.51231
3683.55811	0.53861
3681.62954	0.56648
3679.70098	0.59761
3677.77241	0.63049
3675.84385	0.66951
3673.91528	0.72170
3671.98672	0.76416
3670.05815	0.80224
3668.12959	0.85512
3666.20103	0.90304
3664.27246	0.94252
3662.34390	0.98499
3660.41533	1.03127
3658.48677	1.07747
3656.55820	1.12730
3654.62964	1.18279
3652.70107	1.22924
3650.77251	1.27065
3648.84395	1.32874
3646.91538	1.39771
3644.98682	1.44559
3643.05825	1.48244
3641.12969	1.52243
3639.20112	1.56801
3637.27256	1.61382
3635.34399	1.65806
3633.41543	1.70255
3631.48687	1.74410
3629.55830	1.78583
3627.62974	1.84122
3625.70117	1.89282
3623.77261	1.92669
3621.84404	1.95861
3619.91548	1.99495
3617.98691	2.03840
3616.05835	2.08012
3614.12979	2.11568
3612.20122	2.15405
3610.27266	2.19321
3608.34409	2.23402
3606.41553	2.27822
3604.48696	2.31761
3602.55840	2.35194
3600.62983	2.39072
3598.70127	2.43324
3596.77271	2.47251
3594.84414	2.51187
3592.91558	2.55440
3590.98701	2.59442
3589.05845	2.63036
3587.12988	2.67264
3585.20132	2.71909
3583.27275	2.75905
3581.34419	2.79714
3579.41562	2.83741
3577.48706	2.87934
3575.55850	2.92282
3573.62993	2.96802
3571.70137	3.01066
3569.77280	3.04935
3567.84424	3.09031
3565.91567	3.14185
3563.98711	3.19136
3562.05854	3.23161
3560.12998	3.27416
3558.20142	3.32016
3556.27285	3.36563
3554.34429	3.40986
3552.41572	3.45632
3550.48716	3.50486
3548.55859	3.55085
3546.63003	3.59493
3544.70146	3.64234
3542.77290	3.69079
3540.84434	3.73723
3538.91577	3.78396
3536.98721	3.82971
3535.05864	3.87460
3533.13008	3.91968
3531.20151	3.96702
3529.27295	4.01858
3527.34438	4.07298
3525.41582	4.12375
3523.48726	4.17042
3521.55869	4.22129
3519.63013	4.27615
3517.70156	4.32978
3515.77300	4.37968
3513.84443	4.42528
3511.91587	4.46909
3509.98730	4.51717
3508.05874	4.56871
3506.13018	4.61664
3504.20161	4.66122
3502.27305	4.70709
3500.34448	4.75704
3498.41592	4.80901
3496.48735	4.86132
3494.55879	4.91164
3492.63022	4.95686
3490.70166	5.00282
3488.77310	5.05023
3486.84453	5.09060
3484.91597	5.12978
3482.98740	5.18004
3481.05884	5.23984
3479.13027	5.29504
3477.20171	5.34362
3475.27314	5.39505
3473.34458	5.44889
3471.41602	5.49539
3469.48745	5.53067
3467.55889	5.57173
3465.63032	5.63124
3463.70176	5.69941
3461.77319	5.75624
3459.84463	5.80118
3457.91606	5.84613
3455.98750	5.89238
3454.05894	5.94249
3452.13037	5.98999
3450.20181	6.03268
3448.27324	6.08431
3446.34468	6.14936
3444.41611	6.22245
3442.48755	6.29047
3440.55898	6.32465
3438.63042	6.33146
3436.70186	6.35198
3434.77329	6.40859
3432.84473	6.48902
3430.91616	6.55658
3428.98760	6.61156
3427.05903	6.66845
3425.13047	6.72208
3423.20190	6.78451
3421.27334	6.86398
3419.34478	6.92712
3417.41621	6.96903
3415.48765	7.00637
3413.55908	7.03191
3411.63052	7.07091
3409.70195	7.14324
3407.77339	7.22625
3405.84482	7.26307
3403.91626	7.25684
3401.98770	7.25839
3400.05913	7.30729
3398.13057	7.41091
3396.20200	7.47256
3394.27344	7.44122
3392.34487	7.41419
3390.41631	7.47407
3388.48774	7.58393
3386.55918	7.66291
3384.63062	7.66729
3382.70205	7.64751
3380.77349	7.67501
3378.84492	7.72129
3376.91636	7.73637
3374.98779	7.74863
3373.05923	7.84553
3371.13066	7.96994
3369.20210	7.99741
3367.27354	7.97509
3365.34497	7.98663
3363.41641	8.02260
3361.48784	8.06304
3359.55928	8.11911
3357.63071	8.20863
3355.70215	8.34623
3353.77358	8.38189
3351.84502	8.27947
3349.91646	8.23445
3347.98789	8.29025
3346.05933	8.34417
3344.13076	8.32598
3342.20220	8.29204
3340.27363	8.31579
3338.34507	8.35433
3336.41650	8.33551
3334.48794	8.33922
3332.55937	8.37893
3330.63081	8.38479
3328.70225	8.37194
3326.77368	8.37440
3324.84512	8.36716
3322.91655	8.30641
3320.98799	8.25812
3319.05942	8.30636
3317.13086	8.45794
3315.20229	8.59941
3313.27373	8.64906
3311.34517	8.60711
3309.41660	8.55336
3307.48804	8.64580
3305.55947	8.73265
3303.63091	8.59110
3301.70234	8.45241
3299.77378	8.51461
3297.84521	8.65886
3295.91665	8.64026
3293.98809	8.53619
3292.05952	8.55200
3290.13096	8.53455
3288.20239	8.42447
3286.27383	8.44841
3284.34526	8.58459
3282.41670	8.70397
3280.48813	8.74627
3278.55957	8.68363
3276.63101	8.65611
3274.70244	8.74585
3272.77388	8.76585
3270.84531	8.61661
3268.91675	8.52687
3266.98818	8.61927
3265.05962	8.71706
3263.13105	8.64789
3261.20249	8.52815
3259.27393	8.48017
3257.34536	8.55551
3255.41680	8.61252
3253.48823	8.52330
3251.55967	8.48083
3249.63110	8.55129
3247.70254	8.58463
3245.77397	8.57444
3243.84541	8.64060
3241.91685	8.71149
3239.98828	8.71611
3238.05972	8.72003
3236.13115	8.71881
3234.20259	8.70317
3232.27402	8.69074
3230.34546	8.66946
3228.41689	8.63230
3226.48833	8.63386
3224.55977	8.65890
3222.63120	8.60923
3220.70264	8.52154
3218.77407	8.46216
3216.84551	8.38399
3214.91694	8.26030
3212.98838	8.17520
3211.05981	8.21557
3209.13125	8.29933
3207.20269	8.28068
3205.27412	8.24010
3203.34556	8.26697
3201.41699	8.21012
3199.48843	8.03645
3197.55986	7.94643
3195.63130	7.92249
3193.70273	7.84991
3191.77417	7.78088
3189.84561	7.73971
3187.91704	7.68427
3185.98848	7.61056
3184.05991	7.54323
3182.13135	7.53361
3180.20278	7.57213
3178.27422	7.54851
3176.34565	7.45699
3174.41709	7.37315
3172.48853	7.31030
3170.55996	7.24894
3168.63140	7.16820
3166.70283	7.07905
3164.77427	7.00913
3162.84570	6.95249
3160.91714	6.86891
3158.98857	6.76214
3157.06001	6.67277
3155.13145	6.62281
3153.20288	6.59065
3151.27432	6.52007
3149.34575	6.41269
3147.41719	6.32273
3145.48862	6.26497
3143.56006	6.21442
3141.63149	6.14851
3139.70293	6.06431
3137.77437	5.98112
3135.84580	5.90270
3133.91724	5.82063
3131.98867	5.74503
3130.06011	5.67901
3128.13154	5.61446
3126.20298	5.54270
3124.27441	5.46344
3122.34585	5.38739
3120.41729	5.31701
3118.48872	5.24534
3116.56016	5.16961
3114.63159	5.09264
3112.70303	5.01918
3110.77446	4.95075
3108.84590	4.88286
3106.91733	4.81429
3104.98877	4.74757
3103.06021	4.68266
3101.13164	4.61840
3099.20308	4.55176
3097.27451	4.48059
3095.34595	4.40989
3093.41738	4.34461
3091.48882	4.28231
3089.56025	4.21820
3087.63169	4.15008
3085.70312	4.08193
3083.77456	4.01760
3081.84600	3.95518
3079.91743	3.89347
3077.98887	3.83288
3076.06030	3.77317
3074.13174	3.71487
3072.20317	3.65720
3070.27461	3.59813
3068.34604	3.53869
3066.41748	3.48056
3064.48892	3.42478
3062.56035	3.37209
3060.63179	3.31920
3058.70322	3.26346
3056.77466	3.20757
3054.84609	3.15382
3052.91753	3.10115
3050.98896	3.04843
3049.06040	2.99621
3047.13184	2.94514
3045.20327	2.89535
3043.27471	2.84657
3041.34614	2.79806
3039.41758	2.75006
3037.48901	2.70329
3035.56045	2.65738
3033.63188	2.61184
3031.70332	2.56659
3029.77476	2.52172
3027.84619	2.47749
3025.91763	2.43418
3023.98906	2.39215
3022.06050	2.35069
3020.13193	2.30855
3018.20337	2.26629
3016.27480	2.22565
3014.34624	2.18709
3012.41768	2.14913
3010.48911	2.11089
3008.56055	2.07375
3006.63198	2.03785
3004.70342	2.00198
3002.77485	1.96635
3000.84629	1.93112
2998.91772	1.89642
2996.98916	1.86302
2995.06060	1.83097
2993.13203	1.79971
2991.20347	1.76864
2989.27490	1.73758
2987.34634	1.70723
2985.41777	1.67795
2983.48921	1.64909
2981.56064	1.62047
2979.63208	1.59265
2977.70352	1.56531
2975.77495	1.53814
2973.84639	1.51187
2971.91782	1.48646
2969.98926	1.46098
2968.06069	1.43552
2966.13213	1.41090
2964.20356	1.38706
2962.27500	1.36319
2960.34644	1.33914
2958.41787	1.31509
2956.48931	1.29108
2954.56074	1.26737
2952.63218	1.24397
2950.70361	1.22070
2948.77505	1.19780
2946.84648	1.17553
2944.91792	1.15390
2942.98936	1.13290
2941.06079	1.11263
2939.13223	1.09304
2937.20366	1.07357
2935.27510	1.05383
2933.34653	1.03414
2931.41797	1.01487
2929.48940	0.99624
2927.56084	0.97810
2925.63228	0.96001
2923.70371	0.94203
2921.77515	0.92460
2919.84658	0.90788
2917.91802	0.89133
2915.98945	0.87449
2914.06089	0.85787
2912.13232	0.84184
2910.20376	0.82622
2908.27520	0.81103
2906.34663	0.79630
2904.41807	0.78197
2902.48950	0.76815
2900.56094	0.75476
2898.63237	0.74141
2896.70381	0.72829
2894.77524	0.71581
2892.84668	0.70378
2890.91812	0.69192
2888.98955	0.68041
2887.06099	0.66947
2885.13242	0.65891
2883.20386	0.64863
2881.27529	0.63859
2879.34673	0.62835
2877.41816	0.61800
2875.48960	0.60797
2873.56104	0.59803
2871.63247	0.58770
2869.70391	0.57708
2867.77534	0.56651
2865.84678	0.55604
2863.91821	0.54564
2861.98965	0.53544
2860.06108	0.52570
2858.13252	0.51642
2856.20396	0.50725
2854.27539	0.49822
2852.34683	0.48957
2850.41826	0.48126
2848.48970	0.47314
2846.56113	0.46523
2844.63257	0.45779
2842.70400	0.45113
2840.77544	0.44478
2838.84687	0.43838
2836.91831	0.43229
2834.98975	0.42640
2833.06118	0.42040
2831.13262	0.41442
2829.20405	0.40870
2827.27549	0.40318
2825.34692	0.39756
2823.41836	0.39167
2821.48979	0.38570
2819.56123	0.37990
2817.63267	0.37425
2815.70410	0.36876
2813.77554	0.36342
2811.84697	0.35807
2809.91841	0.35273
2807.98984	0.34755
2806.06128	0.34253
2804.13271	0.33762
2802.20415	0.33275
2800.27559	0.32799
2798.34702	0.32345
2796.41846	0.31891
2794.48989	0.31423
2792.56133	0.30959
2790.63276	0.30513
2788.70420	0.30081
2786.77563	0.29661
2784.84707	0.29249
2782.91851	0.28841
2780.98994	0.28448
2779.06138	0.28076
2777.13281	0.27705
2775.20425	0.27327
2773.27568	0.26961
2771.34712	0.26607
2769.41855	0.26253
2767.48999	0.25901
2765.56143	0.25574
2763.63286	0.25265
2761.70430	0.24950
2759.77573	0.24628
2757.84717	0.24308
2755.91860	0.24001
2753.99004	0.23714
2752.06147	0.23429
2750.13291	0.23134
2748.20435	0.22849
2746.27578	0.22585
2744.34722	0.22337
2742.41865	0.22087
2740.49009	0.21823
2738.56152	0.21564
2736.63296	0.21326
2734.70439	0.21091
2732.77583	0.20848
2730.84727	0.20612
2728.91870	0.20390
2726.99014	0.20182
2725.06157	0.19983
2723.13301	0.19773
2721.20444	0.19559
2719.27588	0.19363
2717.34731	0.19178
2715.41875	0.18989
2713.49019	0.18814
2711.56162	0.18665
2709.63306	0.18512
2707.70449	0.18333
2705.77593	0.18150
2703.84736	0.17987
2701.91880	0.17846
2699.99023	0.17705
2698.06167	0.17558
2696.13311	0.17423
2694.20454	0.17305
2692.27598	0.17185
2690.34741	0.17052
2688.41885	0.16917
2686.49028	0.16790
2684.56172	0.16683
2682.63315	0.16594
2680.70459	0.16501
2678.77603	0.16389
2676.84746	0.16268
2674.91890	0.16151
2672.99033	0.16038
2671.06177	0.15933
2669.13320	0.15846
2667.20464	0.15768
2665.27607	0.15686
2663.34751	0.15605
2661.41895	0.15523
2659.49038	0.15436
2657.56182	0.15362
2655.63325	0.15308
2653.70469	0.15252
2651.77612	0.15192
2649.84756	0.15138
2647.91899	0.15082
2645.99043	0.15011
2644.06187	0.14941
2642.13330	0.14897
2640.20474	0.14861
2638.27617	0.14811
2636.34761	0.14761
2634.41904	0.14723
2632.49048	0.14691
2630.56191	0.14659
2628.63335	0.14626
2626.70479	0.14601
2624.77622	0.14586
2622.84766	0.14568
2620.91909	0.14540
2618.99053	0.14512
2617.06196	0.14494
2615.13340	0.14483
2613.20483	0.14471
2611.27627	0.14471
2609.34771	0.14474
2607.41914	0.14458
2605.49058	0.14438
2603.56201	0.14429
2601.63345	0.14423
2599.70488	0.14420
2597.77632	0.14437
2595.84775	0.14471
2593.91919	0.14494
2591.99062	0.14494
2590.06206	0.14489
2588.13350	0.14493
2586.20493	0.14511
2584.27637	0.14543
2582.34780	0.14578
2580.41924	0.14605
2578.49067	0.14636
2576.56211	0.14684
2574.63354	0.14719
2572.70498	0.14734
2570.77642	0.14753
2568.84785	0.14787
2566.91929	0.14835
2564.99072	0.14895
2563.06216	0.14959
2561.13359	0.15010
2559.20503	0.15046
2557.27646	0.15087
2555.34790	0.15143
2553.41934	0.15196
2551.49077	0.15247
2549.56221	0.15312
2547.63364	0.15380
2545.70508	0.15435
2543.77651	0.15490
2541.84795	0.15555
2539.91938	0.15625
2537.99082	0.15695
2536.06226	0.15765
2534.13369	0.15831
2532.20513	0.15894
2530.27656	0.15959
2528.34800	0.16029
2526.41943	0.16095
2524.49087	0.16158
2522.56230	0.16235
2520.63374	0.16321
2518.70518	0.16390
2516.77661	0.16448
2514.84805	0.16511
2512.91948	0.16587
2510.99092	0.16683
2509.06235	0.16790
2507.13379	0.16884
2505.20522	0.16964
2503.27666	0.17043
2501.34810	0.17116
2499.41953	0.17190
2497.49097	0.17270
2495.56240	0.17349
2493.63384	0.17423
2491.70527	0.17502
2489.77671	0.17595
2487.84814	0.17696
2485.91958	0.17795
2483.99102	0.17890
2482.06245	0.17981
2480.13389	0.18066
2478.20532	0.18152
2476.27676	0.18244
2474.34819	0.18345
2472.41963	0.18446
2470.49106	0.18535
2468.56250	0.18617
2466.63394	0.18703
2464.70537	0.18791
2462.77681	0.18881
2460.84824	0.18977
2458.91968	0.19078
2456.99111	0.19180
2455.06255	0.19284
2453.13398	0.19386
2451.20542	0.19486
2449.27686	0.19581
2447.34829	0.19675
2445.41973	0.19773
2443.49116	0.19881
2441.56260	0.19998
2439.63403	0.20121
2437.70547	0.20237
2435.77690	0.20330
2433.84834	0.20415
2431.91978	0.20518
2429.99121	0.20621
2428.06265	0.20716
2426.13408	0.20828
2424.20552	0.20956
2422.27695	0.21076
2420.34839	0.21183
2418.41982	0.21293
2416.49126	0.21408
2414.56270	0.21517
2412.63413	0.21617
2410.70557	0.21718
2408.77700	0.21826
2406.84844	0.21941
2404.91987	0.22067
2402.99131	0.22201
2401.06274	0.22325
2399.13418	0.22440
2397.20562	0.22559
2395.27705	0.22686
2393.34849	0.22820
2391.41992	0.22969
2389.49136	0.23163
2387.56279	0.23443
2385.63423	0.23885
2383.70566	0.24569
2381.77710	0.25518
2379.84854	0.26684
2377.91997	0.28014
2375.99141	0.29524
2374.06284	0.31263
2372.13428	0.33218
2370.20571	0.35330
2368.27715	0.37479
2366.34858	0.39514
2364.42002	0.41362
2362.49146	0.42883
2360.56289	0.43800
2358.63433	0.43853
2356.70576	0.42943
2354.77720	0.41261
2352.84863	0.39134
2350.92007	0.36972
2348.99150	0.35645
2347.06294	0.35739
2345.13437	0.37263
2343.20581	0.39234
2341.27725	0.40218
2339.34868	0.40307
2337.42012	0.40122
2335.49155	0.39869
2333.56299	0.39633
2331.63442	0.39504
2329.70586	0.39337
2327.77729	0.38973
2325.84873	0.38461
2323.92017	0.37920
2321.99160	0.37357
2320.06304	0.36692
2318.13447	0.35940
2316.20591	0.35264
2314.27734	0.34798
2312.34878	0.34523
2310.42021	0.34298
2308.49165	0.33993
2306.56309	0.33589
2304.63452	0.33197
2302.70596	0.32947
2300.77739	0.32819
2298.84883	0.32717
2296.92026	0.32633
2294.99170	0.32570
2293.06313	0.32504
2291.13457	0.32438
2289.20601	0.32393
2287.27744	0.32364
2285.34888	0.32343
2283.42031	0.32383
2281.49175	0.32538
2279.56318	0.32783
2277.63462	0.33054
2275.70605	0.33318
2273.77749	0.33567
2271.84893	0.33798
2269.92036	0.34007
2267.99180	0.34202
2266.06323	0.34387
2264.13467	0.34560
2262.20610	0.34731
2260.27754	0.34906
2258.34897	0.35070
2256.42041	0.35222
2254.49185	0.35383
2252.56328	0.35561
2250.63472	0.35750
2248.70615	0.35942
2246.77759	0.36133
2244.84902	0.36323
2242.92046	0.36526
2240.99189	0.36741
2239.06333	0.36942
2237.13477	0.37135
2235.20620	0.37348
2233.27764	0.37587
2231.34907	0.37823
2229.42051	0.38036
2227.49194	0.38245
2225.56338	0.38479
2223.63481	0.38719
2221.70625	0.38939
2219.77769	0.39150
2217.84912	0.39355
2215.92056	0.39551
2213.99199	0.39753
2212.06343	0.39969
2210.13486	0.40190
2208.20630	0.40411
2206.27773	0.40628
2204.34917	0.40843
2202.42061	0.41058
2200.49204	0.41264
2198.56348	0.41463
2196.63491	0.41665
2194.70635	0.41865
2192.77778	0.42055
2190.84922	0.42241
2188.92065	0.42426
2186.99209	0.42607
2185.06353	0.42787
2183.13496	0.42964
2181.20640	0.43130
2179.27783	0.43297
2177.34927	0.43466
2175.42070	0.43621
2173.49214	0.43759
2171.56357	0.43895
2169.63501	0.44042
2167.70645	0.44196
2165.77788	0.44338
2163.84932	0.44451
2161.92075	0.44538
2159.99219	0.44624
2158.06362	0.44734
2156.13506	0.44855
2154.20649	0.44959
2152.27793	0.45040
2150.34937	0.45112
2148.42080	0.45184
2146.49224	0.45243
2144.56367	0.45276
2142.63511	0.45306
2140.70654	0.45347
2138.77798	0.45384
2136.84941	0.45402
2134.92085	0.45413
2132.99229	0.45424
2131.06372	0.45429
2129.13516	0.45412
2127.20659	0.45372
2125.27803	0.45327
2123.34946	0.45288
2121.42090	0.45241
2119.49233	0.45173
2117.56377	0.45098
2115.63521	0.45037
2113.70664	0.44985
2111.77808	0.44914
2109.84951	0.44813
2107.92095	0.44698
2105.99238	0.44584
2104.06382	0.44474
2102.13525	0.44362
2100.20669	0.44236
2098.27812	0.44096
2096.34956	0.43950
2094.42100	0.43791
2092.49243	0.43623
2090.56387	0.43458
2088.63530	0.43291
2086.70674	0.43114
2084.77817	0.42929
2082.84961	0.42740
2080.92104	0.42537
2078.99248	0.42320
2077.06392	0.42105
2075.13535	0.41902
2073.20679	0.41706
2071.27822	0.41504
2069.34966	0.41282
2067.42109	0.41038
2065.49253	0.40794
2063.56396	0.40557
2061.63540	0.40309
2059.70684	0.40048
2057.77827	0.39787
2055.84971	0.39527
2053.92114	0.39263
2051.99258	0.39013
2050.06401	0.38770
2048.13545	0.38518
2046.20688	0.38253
2044.27832	0.37987
2042.34976	0.37719
2040.42119	0.37446
2038.49263	0.37180
2036.56406	0.36914
2034.63550	0.36632
2032.70693	0.36339
2030.77837	0.36055
2028.84980	0.35780
2026.92124	0.35510
2024.99268	0.35242
2023.06411	0.34969
2021.13555	0.34694
2019.20698	0.34424
2017.27842	0.34149
2015.34985	0.33857
2013.42129	0.33568
2011.49272	0.33296
2009.56416	0.33039
2007.63560	0.32781
2005.70703	0.32517
2003.77847	0.32247
2001.84990	0.31982
1999.92134	0.31727
1997.99277	0.31465
1996.06421	0.31190
1994.13564	0.30931
1992.20708	0.30692
1990.27852	0.30451
1988.34995	0.30207
1986.42139	0.29959
1984.49282	0.29707
1982.56426	0.29459
1980.63569	0.29220
1978.70713	0.28995
1976.77856	0.28774
1974.85000	0.28546
1972.92144	0.28316
1970.99287	0.28106
1969.06431	0.27919
1967.13574	0.27734
1965.20718	0.27528
1963.27861	0.27315
1961.35005	0.27116
1959.42148	0.26929
1957.49292	0.26750
1955.56436	0.26572
1953.63579	0.26393
1951.70723	0.26216
1949.77866	0.26052
1947.85010	0.25902
1945.92153	0.25763
1943.99297	0.25637
1942.06440	0.25501
1940.13584	0.25328
1938.20728	0.25155
1936.27871	0.25013
1934.35015	0.24891
1932.42158	0.24771
1930.49302	0.24651
1928.56445	0.24536
1926.63589	0.24428
1924.70732	0.24346
1922.77876	0.24272
1920.85020	0.24169
1918.92163	0.24059
1916.99307	0.23964
1915.06450	0.23868
1913.13594	0.23781
1911.20737	0.23720
1909.27881	0.23665
1907.35024	0.23594
1905.42168	0.23509
1903.49312	0.23436
1901.56455	0.23376
1899.63599	0.23320
1897.70742	0.23277
1895.77886	0.23252
1893.85029	0.23227
1891.92173	0.23200
1889.99316	0.23194
1888.06460	0.23174
1886.13604	0.23121
1884.20747	0.23076
1882.27891	0.23055
1880.35034	0.23048
1878.42178	0.23044
1876.49321	0.23039
1874.56465	0.23031
1872.63608	0.23043
1870.70752	0.23095
1868.77896	0.23179
1866.85039	0.23205
1864.92183	0.23167
1862.99326	0.23152
1861.06470	0.23168
1859.13613	0.23201
1857.20757	0.23236
1855.27900	0.23280
1853.35044	0.23322
1851.42187	0.23369
1849.49331	0.23431
1847.56475	0.23519
1845.63618	0.23634
1843.70762	0.23754
1841.77905	0.23814
1839.85049	0.23833
1837.92192	0.23894
1835.99336	0.23983
1834.06479	0.24076
1832.13623	0.24186
1830.20767	0.24356
1828.27910	0.24524
1826.35054	0.24619
1824.42197	0.24733
1822.49341	0.24854
1820.56484	0.24965
1818.63628	0.25094
1816.70771	0.25254
1814.77915	0.25415
1812.85059	0.25597
1810.92202	0.25821
1808.99346	0.26032
1807.06489	0.26206
1805.13633	0.26378
1803.20776	0.26604
1801.27920	0.26880
1799.35063	0.27180
1797.42207	0.27441
1795.49351	0.27691
1793.56494	0.27990
1791.63638	0.28365
1789.70781	0.28683
1787.77925	0.28905
1785.85068	0.29202
1783.92212	0.29578
1781.99355	0.29987
1780.06499	0.30415
1778.13643	0.30837
1776.20786	0.31232
1774.27930	0.31680
1772.35073	0.32296
1770.42217	0.32936
1768.49360	0.33444
1766.56504	0.33929
1764.63647	0.34445
1762.70791	0.35044
1760.77935	0.35808
1758.85078	0.36508
1756.92222	0.37208
1754.99365	0.37980
1753.06509	0.38691
1751.13652	0.39560
1749.20796	0.40653
1747.27939	0.41688
1745.35083	0.42582
1743.42227	0.43543
1741.49370	0.44606
1739.56514	0.45855
1737.63657	0.47104
1735.70801	0.48210
1733.77944	0.49903
1731.85088	0.51911
1729.92231	0.53456
1727.99375	0.54997
1726.06519	0.56650
1724.13662	0.58470
1722.20806	0.60440
1720.27949	0.62260
1718.35093	0.64430
1716.42236	0.67681
1714.49380	0.70746
1712.56523	0.73189
1710.63667	0.75562
1708.70811	0.78128
1706.77954	0.81053
1704.85098	0.84579
1702.92241	0.87751
1700.99385	0.90873
1699.06528	0.95499
1697.13672	0.99742
1695.20815	1.04062
1693.27959	1.08258
1691.35103	1.11651
1689.42246	1.15582
1687.49390	1.19721
1685.56533	1.23734
1683.63677	1.30043
1681.70820	1.36588
1679.77964	1.40690
1677.85107	1.44569
1675.92251	1.49081
1673.99395	1.54738
1672.06538	1.59749
1670.13682	1.64606
1668.20825	1.70972
1666.27969	1.76187
1664.35112	1.80672
1662.42256	1.86357
1660.49399	1.92652
1658.56543	1.97452
1656.63687	2.01421
1654.70830	2.05249
1652.77974	2.11157
1650.85117	2.16437
1648.92261	2.18259
1646.99404	2.20808
1645.06548	2.23667
1643.13691	2.25396
1641.20835	2.26311
1639.27979	2.27186
1637.35122	2.27873
1635.42266	2.28133
1633.49409	2.27444
1631.56553	2.25977
1629.63696	2.24254
1627.70840	2.21522
1625.77983	2.18321
1623.85127	2.14194
1621.92271	2.09089
1619.99414	2.04639
1618.06558	2.00369
1616.13701	1.94172
1614.20845	1.87696
1612.27988	1.82694
1610.35132	1.77530
1608.42275	1.71963
1606.49419	1.66452
1604.56562	1.61402
1602.63706	1.56584
1600.70850	1.51877
1598.77993	1.47517
1596.85137	1.43400
1594.92280	1.39390
1592.99424	1.35524
1591.06567	1.32001
1589.13711	1.28711
1587.20854	1.25645
1585.27998	1.22810
1583.35142	1.20182
1581.42285	1.17790
1579.49429	1.15741
1577.56572	1.13923
1575.63716	1.11734
1573.70859	1.09778
1571.78003	1.08499
1569.85146	1.07210
1567.92290	1.05802
1565.99434	1.04743
1564.06577	1.03937
1562.13721	1.03323
1560.20864	1.02947
1558.28008	1.02590
1556.35151	1.02231
1554.42295	1.01952
1552.49438	1.01696
1550.56582	1.01353
1548.63726	1.00819
1546.70869	1.00159
1544.78013	0.99351
1542.85156	0.98327
1540.92300	0.96852
1538.99443	0.94503
1537.06587	0.92725
1535.13730	0.91545
1533.20874	0.90014
1531.28018	0.88321
1529.35161	0.87075
1527.42305	0.85935
1525.49448	0.84748
1523.56592	0.83736
1521.63735	0.82791
1519.70879	0.81795
1517.78022	0.80913
1515.85166	0.79889
1513.92310	0.78821
1511.99453	0.77938
1510.06597	0.77192
1508.13740	0.76526
1506.20884	0.75409
1504.28027	0.74259
1502.35171	0.73590
1500.42314	0.73057
1498.49458	0.72511
1496.56602	0.71866
1494.63745	0.71203
1492.70889	0.70693
1490.78032	0.70289
1488.85176	0.69831
1486.92319	0.69315
1484.99463	0.68851
1483.06606	0.68488
1481.13750	0.68198
1479.20894	0.67963
1477.28037	0.67814
1475.35181	0.67733
1473.42324	0.67674
1471.49468	0.67503
1469.56611	0.67207
1467.63755	0.66919
1465.70898	0.66690
1463.78042	0.66500
1461.85186	0.66355
1459.92329	0.66293
1457.99473	0.66311
1456.06616	0.66254
1454.13760	0.66007
1452.20903	0.65735
1450.28047	0.65490
1448.35190	0.65261
1446.42334	0.65002
1444.49478	0.64746
1442.56621	0.64529
1440.63765	0.64317
1438.70908	0.64106
1436.78052	0.63862
1434.85195	0.63546
1432.92339	0.63251
1430.99482	0.63048
1429.06626	0.62931
1427.13770	0.62861
1425.20913	0.62835
1423.28057	0.62854
1421.35200	0.62862
1419.42344	0.62850
1417.49487	0.62793
1415.56631	0.62657
1413.63774	0.62530
1411.70918	0.62478
1409.78062	0.62498
1407.85205	0.62550
1405.92349	0.62630
1403.99492	0.62701
1402.06636	0.62687
1400.13779	0.62616
1398.20923	0.62508
1396.28066	0.62334
1394.35210	0.62056
1392.42354	0.61703
1390.49497	0.61375
1388.56641	0.61074
1386.63784	0.60714
1384.70928	0.60297
1382.78071	0.59903
1380.85215	0.59547
1378.92358	0.59245
1376.99502	0.59022
1375.06646	0.58868
1373.13789	0.58731
1371.20933	0.58598
1369.28076	0.58491
1367.35220	0.58377
1365.42363	0.58242
1363.49507	0.58114
1361.56650	0.57980
1359.63794	0.57836
1357.70937	0.57719
1355.78081	0.57618
1353.85225	0.57519
1351.92368	0.57439
1349.99512	0.57381
1348.06655	0.57323
1346.13799	0.57254
1344.20942	0.57175
1342.28086	0.57097
1340.35229	0.57036
1338.42373	0.56973
1336.49517	0.56887
1334.56660	0.56810
1332.63804	0.56774
1330.70947	0.56775
1328.78091	0.56788
1326.85234	0.56803
1324.92378	0.56818
1322.99521	0.56830
1321.06665	0.56841
1319.13809	0.56863
1317.20952	0.56878
1315.28096	0.56856
1313.35239	0.56798
1311.42383	0.56729
1309.49526	0.56666
1307.56670	0.56595
1305.63813	0.56517
1303.70957	0.56453
1301.78101	0.56394
1299.85244	0.56326
1297.92388	0.56255
1295.99531	0.56173
1294.06675	0.56060
1292.13818	0.55931
1290.20962	0.55824
1288.28105	0.55744
1286.35249	0.55664
1284.42393	0.55579
1282.49536	0.55487
1280.56680	0.55379
1278.63823	0.55261
1276.70967	0.55157
1274.78110	0.55079
1272.85254	0.55016
1270.92397	0.54948
1268.99541	0.54864
1267.06685	0.54774
1265.13828	0.54693
1263.20972	0.54633
1261.28115	0.54590
1259.35259	0.54546
1257.42402	0.54499
1255.49546	0.54457
1253.56689	0.54429
1251.63833	0.54426
1249.70977	0.54433
1247.78120	0.54412
1245.85264	0.54363
1243.92407	0.54310
1241.99551	0.54252
1240.06694	0.54174
1238.13838	0.54069
1236.20981	0.53933
1234.28125	0.53772
1232.35269	0.53603
1230.42412	0.53431
1228.49556	0.53271
1226.56699	0.53147
1224.63843	0.53036
1222.70986	0.52900
1220.78130	0.52759
1218.85273	0.52648
1216.92417	0.52560
1214.99561	0.52476
1213.06704	0.52391
1211.13848	0.52313
1209.20991	0.52237
1207.28135	0.52173
1205.35278	0.52118
1203.42422	0.52047
1201.49565	0.51959
1199.56709	0.51875
1197.63853	0.51808
1195.70996	0.51752
1193.78140	0.51699
1191.85283	0.51655
1189.92427	0.51634
1187.99570	0.51615
1186.06714	0.51592
1184.13857	0.51590
1182.21001	0.51617
1180.28145	0.51672
1178.35288	0.51750
1176.42432	0.51843
1174.49575	0.51939
1172.56719	0.52016
1170.63862	0.52048
1168.71006	0.52043
1166.78149	0.52031
1164.85293	0.52016
1162.92437	0.51987
1160.99580	0.51936
1159.06724	0.51862
1157.13867	0.51773
1155.21011	0.51667
1153.28154	0.51535
1151.35298	0.51378
1149.42441	0.51185
1147.49585	0.50953
1145.56729	0.50711
1143.63872	0.50473
1141.71016	0.50237
1139.78159	0.50017
1137.85303	0.49827
1135.92446	0.49675
1133.99590	0.49544
1132.06733	0.49409
1130.13877	0.49275
1128.21021	0.49159
1126.28164	0.49054
1124.35308	0.48961
1122.42451	0.48883
1120.49595	0.48817
1118.56738	0.48775
1116.63882	0.48756
1114.71025	0.48735
1112.78169	0.48710
1110.85312	0.48710
1108.92456	0.48760
1106.99600	0.48867
1105.06743	0.49001
1103.13887	0.49139
1101.21030	0.49316
1099.28174	0.49557
1097.35317	0.49832
1095.42461	0.50127
1093.49604	0.50476
1091.56748	0.50899
1089.63892	0.51382
1087.71035	0.51895
1085.78179	0.52460
1083.85322	0.53112
1081.92466	0.53773
1079.99609	0.54305
1078.06753	0.54630
1076.13896	0.54702
1074.21040	0.54509
1072.28184	0.54099
1070.35327	0.53539
1068.42471	0.52887
1066.49614	0.52201
1064.56758	0.51547
1062.63901	0.50971
1060.71045	0.50475
1058.78188	0.50023
1056.85332	0.49592
1054.92476	0.49223
1052.99619	0.48930
1051.06763	0.48661
1049.13906	0.48400
1047.21050	0.48180
1045.28193	0.48006
1043.35337	0.47855
1041.42480	0.47711
1039.49624	0.47592
1037.56768	0.47520
1035.63911	0.47476
1033.71055	0.47437
1031.78198	0.47423
1029.85342	0.47434
1027.92485	0.47449
1025.99629	0.47475
1024.06772	0.47516
1022.13916	0.47565
1020.21060	0.47629
1018.28203	0.47721
1016.35347	0.47829
1014.42490	0.47920
1012.49634	0.47995
1010.56777	0.48101
1008.63921	0.48264
1006.71064	0.48475
1004.78208	0.48717
1002.85352	0.48963
1000.92495	0.49212
998.99639	0.49518
997.06782	0.49901
995.13926	0.50307
993.21069	0.50690
991.28213	0.51037
989.35356	0.51311
987.42500	0.51480
985.49644	0.51571
983.56787	0.51638
981.63931	0.51727
979.71074	0.51869
977.78218	0.52066
975.85361	0.52309
973.92505	0.52597
971.99648	0.52913
970.06792	0.53244
968.13936	0.53601
966.21079	0.53990
964.28223	0.54428
962.35366	0.54936
960.42510	0.55508
958.49653	0.56090
956.56797	0.56652
954.63940	0.57239
952.71084	0.57869
950.78228	0.58514
948.85371	0.59163
946.92515	0.59818
944.99658	0.60456
943.06802	0.61043
941.13945	0.61596
939.21089	0.62177
937.28232	0.62796
935.35376	0.63390
933.42520	0.63933
931.49663	0.64491
929.56807	0.65097
927.63950	0.65704
925.71094	0.66316
923.78237	0.66945
921.85381	0.67570
919.92524	0.68222
917.99668	0.68918
916.06812	0.69657
914.13955	0.70476
912.21099	0.71314
910.28242	0.72112
908.35386	0.72951
906.42529	0.73812
904.49673	0.74615
902.56816	0.75453
900.63960	0.76400
898.71104	0.77372
896.78247	0.78369
894.85391	0.79478
892.92534	0.80674
890.99678	0.81840
889.06821	0.82902
887.13965	0.83935
885.21108	0.85055
883.28252	0.86242
881.35396	0.87402
879.42539	0.88414
877.49683	0.89321
875.56826	0.90416
873.63970	0.91736
871.71113	0.93014
869.78257	0.94212
867.85400	0.95447
865.92544	0.96558
863.99687	0.97429
862.06831	0.98433
860.13975	0.99733
858.21118	1.01064
856.28262	1.02378
854.35405	1.03670
852.42549	1.04832
850.49692	1.05933
848.56836	1.07048
846.63979	1.08141
844.71123	1.09301
842.78267	1.10794
840.85410	1.12473
838.92554	1.13639
836.99697	1.14334
835.06841	1.15347
833.13984	1.16901
831.21128	1.18587
829.28271	1.19860
827.35415	1.20613
825.42559	1.21546
823.49702	1.23331
821.56846	1.25421
819.63989	1.26669
817.71133	1.27325
815.78276	1.28588
813.85420	1.30210
811.92563	1.31221
809.99707	1.31746
808.06851	1.32620
806.13994	1.35249
804.21138	1.39707
802.28281	1.43471
800.35425	1.45719
798.42568	1.48381
796.49712	1.49318
794.56855	1.48789
792.63999	1.50143
790.71143	1.53306
788.78286	1.59470
786.85430	1.68902
784.92573	1.78582
782.99717	1.73349
781.06860	1.57931
779.14004	1.58836
777.21147	1.73711
775.28291	1.80626
773.35435	1.80507
771.42578	1.77448
769.49722	1.83414
767.56865	1.65283
765.64009	1.42832
763.71152	1.36894
761.78296	1.44253
759.85439	1.54625
757.92583	1.43217
755.99727	1.24753
754.06870	1.15472
752.14014	1.09196
750.21157	1.09545
748.28301	1.12602
746.35444	1.07897
744.42588	1.03435
742.49731	0.98285
740.56875	0.84478
738.64019	0.69524
736.71162	0.55591
734.78306	0.43004
732.85449	0.33626
730.92593	0.18580
728.99736	-0.29961
727.06880	4.36241
725.14023	4.35084
723.21167	4.33927
721.28311	4.32770
719.35454	-0.22872
717.42598	0.08576
715.49741	0.19103
713.56885	0.27682
711.64028	0.35540
709.71172	0.41679
707.78315	0.42469
705.85459	0.41888
703.92603	0.42205
701.99746	0.40991
700.06890	0.41294
698.14033	0.46410
696.21177	0.50158
694.28320	0.51263
692.35464	0.57189
690.42607	0.64130
688.49751	0.63321
686.56895	0.59437
684.64038	0.55288
682.71182	0.49871
680.78325	0.48340
678.85469	0.52548
676.92612	0.50831
674.99756	0.41074
673.06899	0.35484
671.14043	0.35477
669.21187	0.36935
667.28330	0.38593
665.35474	0.41544
663.42617	0.43248
661.49761	0.41719
659.56904	0.41648
657.64048	0.45881
655.71191	0.48824
653.78335	0.44878
651.85479	0.40817
649.92622	0.42846
647.99766	0.48064
646.06909	0.48516
644.14053	0.45661
642.21196	0.44550
640.28340	0.41815
638.35483	0.39676
636.42627	0.42560
634.49771	0.44283
632.56914	0.41012
630.64058	0.39274
628.71201	0.38974
626.78345	0.39737
624.85488	0.42990
622.92632	0.46252
620.99775	0.44470
619.06919	0.38862
617.14062	0.35022
615.21206	0.34643
613.28350	0.37266
611.35493	0.40520
609.42637	0.44943
607.49780	0.47756
605.56924	0.40270
603.64067	0.33775
601.71211	0.36868
599.78354	0.42928
597.85498	0.45745
595.92642	0.49673
593.99785	0.51247
592.06929	0.43811
590.14072	0.36395
588.21216	0.34837
586.28359	0.36723
584.35503	0.37402
582.42646	0.34543
580.49790	0.32122
578.56934	0.36153
576.64077	0.45128
574.71221	0.46357
572.78364	0.40948
570.85508	0.36257
568.92651	0.32806
566.99795	0.32651
565.06938	0.35636
563.14082	0.36970
561.21226	0.36224
559.28369	0.37422
557.35513	0.40256
555.42656	0.39988
553.49800	0.36580
551.56943	0.35233
549.64087	0.38240
547.71230	0.43519
545.78374	0.45164
543.85518	0.41702
541.92661	0.35898
539.99805	0.30314
538.06948	0.27560
536.14092	0.29318
534.21235	0.34595
532.28379	0.39709
530.35522	0.42869
528.42666	0.41657
526.49810	0.38988
524.56953	0.41293
522.64097	0.42771
520.71240	0.36876
518.78384	0.30980
516.85527	0.28632
514.92671	0.28397
512.99814	0.29443
511.06958	0.32018
509.14102	0.35785
507.21245	0.37297
505.28389	0.34695
503.35532	0.32021
501.42676	0.31897
499.49819	0.33859
