3997.91411	0.05303
3995.98555	0.05323
3994.05698	0.05299
3992.12842	0.05324
3990.19985	0.05397
3988.27129	0.05437
3986.34272	0.05441
3984.41416	0.05481
3982.48560	0.05535
3980.55703	0.05549
3978.62847	0.05548
3976.69990	0.05565
3974.77134	0.05611
3972.84277	0.05679
3970.91421	0.05717
3968.98564	0.05697
3967.05708	0.05679
3965.12852	0.05697
3963.19995	0.05721
3961.27139	0.05744
3959.34282	0.05770
3957.41426	0.05774
3955.48569	0.05758
3953.55713	0.05758
3951.62856	0.05814
3949.70000	0.05911
3947.77144	0.05986
3945.84287	0.05980
3943.91431	0.05916
3941.98574	0.05867
3940.05718	0.05829
3938.12861	0.05776
3936.20005	0.05762
3934.27148	0.05826
3932.34292	0.05930
3930.41436	0.05981
3928.48579	0.05933
3926.55723	0.05861
3924.62866	0.05852
3922.70010	0.05873
3920.77153	0.05863
3918.84297	0.05841
3916.91440	0.05838
3914.98584	0.05816
3913.05728	0.05766
3911.12871	0.05731
3909.20015	0.05708
3907.27158	0.05711
3905.34302	0.05780
3903.41445	0.05877
3901.48589	0.05902
3899.55732	0.05907
3897.62876	0.05923
3895.70020	0.05874
3893.77163	0.05831
3891.84307	0.05895
3889.91450	0.05974
3887.98594	0.05927
3886.05737	0.05870
3884.12881	0.05900
3882.20024	0.05965
3880.27168	0.06027
3878.34312	0.06043
3876.41455	0.06004
3874.48599	0.06014
3872.55742	0.06112
3870.62886	0.06208
3868.70029	0.06201
3866.77173	0.06121
3864.84316	0.06123
3862.91460	0.06234
3860.98604	0.06293
3859.05747	0.06251
3857.12891	0.06213
3855.20034	0.06236
3853.27178	0.06414
3851.34321	0.06703
3849.41465	0.06701
3847.48608	0.06552
3845.55752	0.06479
3843.62896	0.06529
3841.70039	0.06667
3839.77183	0.06840
3837.84326	0.06972
3835.91470	0.06982
3833.98613	0.06928
3832.05757	0.06908
3830.12900	0.06953
3828.20044	0.07047
3826.27187	0.07156
3824.34331	0.07233
3822.41475	0.07296
3820.48618	0.07479
3818.55762	0.07689
3816.62905	0.07767
3814.70049	0.07849
3812.77192	0.07897
3810.84336	0.07857
3808.91479	0.07846
3806.98623	0.07950
3805.05767	0.08138
3803.12910	0.08314
3801.20054	0.08511
3799.27197	0.08686
3797.34341	0.08744
3795.41484	0.08797
3793.48628	0.08862
3791.55771	0.08937
3789.62915	0.09047
3787.70059	0.09165
3785.77202	0.09297
3783.84346	0.09466
3781.91489	0.09627
3779.98633	0.09781
3778.05776	0.09961
3776.12920	0.10097
3774.20063	0.10205
3772.27207	0.10348
3770.34351	0.10541
3768.41494	0.10776
3766.48638	0.10997
3764.55781	0.11210
3762.62925	0.11400
3760.70068	0.11596
3758.77212	0.11887
3756.84355	0.12188
3754.91499	0.12377
3752.98643	0.12563
3751.05786	0.12893
3749.12930	0.13330
3747.20073	0.13609
3745.27217	0.13824
3743.34360	0.14238
3741.41504	0.14674
3739.48647	0.14963
3737.55791	0.15299
3735.62935	0.15819
3733.70078	0.16476
3731.77222	0.17027
3729.84365	0.17433
3727.91509	0.17822
3725.98652	0.18366
3724.05796	0.19050
3722.12939	0.19716
3720.20083	0.20339
3718.27227	0.20945
3716.34370	0.21599
3714.41514	0.22314
3712.48657	0.23204
3710.55801	0.24517
3708.62944	0.25974
3706.70088	0.27119
3704.77231	0.28185
3702.84375	0.29506
3700.91519	0.31238
3698.98662	0.33049
3697.05806	0.34719
3695.12949	0.36533
3693.20093	0.38506
3691.27236	0.40615
3689.34380	0.43270
3687.41523	0.46593
3685.48667	0.49644
3683.55811	0.52321
3681.62954	0.55134
3679.70098	0.58238
3677.77241	0.61474
3675.84385	0.65306
3673.91528	0.70552
3671.98672	0.74900
3670.05815	0.78729
3668.12959	0.84013
3666.20103	0.88843
3664.27246	0.92845
3662.34390	0.97158
3660.41533	1.01831
3658.48677	1.06416
3656.55820	1.11296
3654.62964	1.16784
3652.70107	1.21429
3650.77251	1.25447
3648.84395	1.30953
3646.91538	1.37766
3644.98682	1.42840
3643.05825	1.46738
3641.12969	1.50715
3639.20112	1.55120
3637.27256	1.59548
3635.34399	1.63822
3633.41543	1.68100
3631.48687	1.72098
3629.55830	1.76117
3627.62974	1.81556
3625.70117	1.86811
3623.77261	1.90307
3621.84404	1.93552
3619.91548	1.97288
3617.98691	2.01805
3616.05835	2.06056
3614.12979	2.09598
3612.20122	2.13410
3610.27266	2.17289
3608.34409	2.21324
3606.41553	2.25756
3604.48696	2.29816
3602.55840	2.33343
3600.62983	2.37112
3598.70127	2.41153
3596.77271	2.45086
3594.84414	2.49147
3592.91558	2.53298
3590.98701	2.57080
3589.05845	2.60572
3587.12988	2.64865
3585.20132	2.69802
3583.27275	2.74058
3581.34419	2.77865
3579.41562	2.81879
3577.48706	2.86272
3575.55850	2.90739
3573.62993	2.95065
3571.70137	2.99117
3569.77280	3.02990
3567.84424	3.07067
3565.91567	3.12086
3563.98711	3.17358
3562.05854	3.21889
3560.12998	3.26113
3558.20142	3.30360
3556.27285	3.34725
3554.34429	3.39183
3552.41572	3.43856
3550.48716	3.48510
3548.55859	3.52990
3546.63003	3.57515
3544.70146	3.62272
3542.77290	3.67122
3540.84434	3.71926
3538.91577	3.76725
3536.98721	3.81404
3535.05864	3.86208
3533.13008	3.91214
3531.20151	3.96088
3529.27295	4.00547
3527.34438	4.04997
3525.41582	4.09784
3523.48726	4.14690
3521.55869	4.19732
3519.63013	4.24600
3517.70156	4.29284
3515.77300	4.34132
3513.84443	4.38783
3511.91587	4.43021
3509.98730	4.47760
3508.05874	4.53178
3506.13018	4.58351
3504.20161	4.63177
3502.27305	4.67785
3500.34448	4.72028
3498.41592	4.76222
3496.48735	4.80837
3494.55879	4.85800
3492.63022	4.90620
3490.70166	4.95297
3488.77310	5.00336
3486.84453	5.05673
3484.91597	5.10853
3482.98740	5.15523
3481.05884	5.19695
3479.13027	5.24333
3477.20171	5.30096
3475.27314	5.35462
3473.34458	5.39107
3471.41602	5.42471
3469.48745	5.47271
3467.55889	5.53436
3465.63032	5.59717
3463.70176	5.64952
3461.77319	5.68998
3459.84463	5.72930
3457.91606	5.77158
3455.98750	5.81358
3454.05894	5.85849
3452.13037	5.90716
3450.20181	5.95504
3448.27324	6.00768
3446.34468	6.07211
3444.41611	6.12775
3442.48755	6.16490
3440.55898	6.20702
3438.63042	6.27757
3436.70186	6.34905
3434.77329	6.37160
3432.84473	6.36771
3430.91616	6.39221
3428.98760	6.44890
3427.05903	6.51552
3425.13047	6.60148
3423.20190	6.68345
3421.27334	6.73065
3419.34478	6.76587
3417.41621	6.81266
3415.48765	6.87339
3413.55908	6.91921
3411.63052	6.94018
3409.70195	6.96495
3407.77339	7.01091
3405.84482	7.06120
3403.91626	7.10881
3401.98770	7.14405
3400.05913	7.16680
3398.13057	7.19478
3396.20200	7.22610
3394.27344	7.26747
3392.34487	7.30414
3390.41631	7.33834
3388.48774	7.37557
3386.55918	7.40086
3384.63062	7.43023
3382.70205	7.47681
3380.77349	7.50693
3378.84492	7.53111
3376.91636	7.60370
3374.98779	7.69261
3373.05923	7.69906
3371.13066	7.60115
3369.20210	7.55671
3367.27354	7.64245
3365.34497	7.79273
3363.41641	7.91470
3361.48784	7.92024
3359.55928	7.86017
3357.63071	7.81790
3355.70215	7.81547
3353.77358	7.85038
3351.84502	7.90345
3349.91646	7.91711
3347.98789	7.89566
3346.05933	7.87167
3344.13076	7.86457
3342.20220	7.90649
3340.27363	7.92471
3338.34507	7.88569
3336.41650	7.84928
3334.48794	7.89789
3332.55937	8.03416
3330.63081	8.09961
3328.70225	8.04076
3326.77368	7.96096
3324.84512	7.88428
3322.91655	7.83933
3320.98799	7.88060
3319.05942	7.95376
3317.13086	7.98561
3315.20229	7.97611
3313.27373	7.96858
3311.34517	7.95071
3309.41660	7.91853
3307.48804	7.94069
3305.55947	8.02782
3303.63091	8.13203
3301.70234	8.17621
3299.77378	8.11690
3297.84521	7.99369
3295.91665	7.92519
3293.98809	7.97545
3292.05952	8.04868
3290.13096	7.99970
3288.20239	7.89292
3286.27383	7.88636
3284.34526	7.97289
3282.41670	8.06705
3280.48813	8.06939
3278.55957	8.00798
3276.63101	8.00533
3274.70244	8.02198
3272.77388	7.99797
3270.84531	7.99631
3268.91675	8.04098
3266.98818	8.10384
3265.05962	8.14151
3263.13105	8.12250
3261.20249	8.12492
3259.27393	8.13083
3257.34536	8.07864
3255.41680	8.06497
3253.48823	8.10840
3251.55967	8.10775
3249.63110	8.05975
3247.70254	8.03008
3245.77397	8.02554
3243.84541	8.06601
3241.91685	8.12150
3239.98828	8.09339
3238.05972	8.02279
3236.13115	8.02327
3234.20259	8.14383
3232.27402	8.31567
3230.34546	8.32390
3228.41689	8.17895
3226.48833	8.12768
3224.55977	8.19494
3222.63120	8.21181
3220.70264	8.09842
3218.77407	7.94779
3216.84551	7.84734
3214.91694	7.82647
3212.98838	7.84392
3211.05981	7.81764
3209.13125	7.77176
3207.20269	7.75780
3205.27412	7.75320
3203.34556	7.72300
3201.41699	7.67548
3199.48843	7.63646
3197.55986	7.59645
3195.63130	7.56014
3193.70273	7.52481
3191.77417	7.47003
3189.84561	7.43420
3187.91704	7.42408
3185.98848	7.41192
3184.05991	7.39002
3182.13135	7.32203
3180.20278	7.21856
3178.27422	7.16180
3176.34565	7.15944
3174.41709	7.11300
3172.48853	7.01788
3170.55996	6.95816
3168.63140	6.93829
3166.70283	6.90243
3164.77427	6.82574
3162.84570	6.75239
3160.91714	6.70904
3158.98857	6.66161
3157.06001	6.59049
3155.13145	6.51905
3153.20288	6.45530
3151.27432	6.39896
3149.34575	6.34692
3147.41719	6.26757
3145.48862	6.17349
3143.56006	6.10525
3141.63149	6.05337
3139.70293	5.99380
3137.77437	5.91979
3135.84580	5.83868
3133.91724	5.76416
3131.98867	5.69083
3130.06011	5.61226
3128.13154	5.53864
3126.20298	5.47382
3124.27441	5.41176
3122.34585	5.34475
3120.41729	5.27128
3118.48872	5.19598
3116.56016	5.12356
3114.63159	5.05600
3112.70303	4.99169
3110.77446	4.92633
3108.84590	4.85835
3106.91733	4.79022
3104.98877	4.72228
3103.06021	4.65439
3101.13164	4.58674
3099.20308	4.52026
3097.27451	4.45435
3095.34595	4.38813
3093.41738	4.32325
3091.48882	4.25909
3089.56025	4.19677
3087.63169	4.13650
3085.70312	4.07371
3083.77456	4.00824
3081.84600	3.94305
3079.91743	3.88028
3077.98887	3.82195
3076.06030	3.76420
3074.13174	3.70423
3072.20317	3.64690
3070.27461	3.59355
3068.34604	3.53974
3066.41748	3.48319
3064.48892	3.42552
3062.56035	3.36830
3060.63179	3.31238
3058.70322	3.25810
3056.77466	3.20454
3054.84609	3.15184
3052.91753	3.10120
3050.98896	3.05174
3049.06040	3.00107
3047.13184	2.95017
3045.20327	2.90102
3043.27471	2.85173
3041.34614	2.80247
3039.41758	2.75547
3037.48901	2.70957
3035.56045	2.66329
3033.63188	2.61729
3031.70332	2.57225
3029.77476	2.52807
3027.84619	2.48421
3025.91763	2.44096
3023.98906	2.39895
3022.06050	2.35749
3020.13193	2.31598
3018.20337	2.27503
3016.27480	2.23516
3014.34624	2.19635
3012.41768	2.15803
3010.48911	2.11975
3008.56055	2.08203
3006.63198	2.04513
3004.70342	2.00915
3002.77485	1.97433
3000.84629	1.94008
2998.91772	1.90614
2996.98916	1.87322
2995.06060	1.84108
2993.13203	1.80958
2991.20347	1.77925
2989.27490	1.74958
2987.34634	1.72003
2985.41777	1.69055
2983.48921	1.66172
2981.56064	1.63408
2979.63208	1.60730
2977.70352	1.58116
2975.77495	1.55563
2973.84639	1.53045
2971.91782	1.50530
2969.98926	1.48036
2968.06069	1.45610
2966.13213	1.43228
2964.20356	1.40842
2962.27500	1.38454
2960.34644	1.36048
2958.41787	1.33624
2956.48931	1.31240
2954.56074	1.28899
2952.63218	1.26556
2950.70361	1.24240
2948.77505	1.21989
2946.84648	1.19759
2944.91792	1.17554
2942.98936	1.15409
2941.06079	1.13328
2939.13223	1.11355
2937.20366	1.09467
2935.27510	1.07532
2933.34653	1.05494
2931.41797	1.03455
2929.48940	1.01531
2927.56084	0.99740
2925.63228	0.98002
2923.70371	0.96200
2921.77515	0.94337
2919.84658	0.92527
2917.91802	0.90786
2915.98945	0.89072
2914.06089	0.87416
2912.13232	0.85837
2910.20376	0.84291
2908.27520	0.82745
2906.34663	0.81247
2904.41807	0.79838
2902.48950	0.78489
2900.56094	0.77141
2898.63237	0.75778
2896.70381	0.74449
2894.77524	0.73168
2892.84668	0.71931
2890.91812	0.70748
2888.98955	0.69631
2887.06099	0.68574
2885.13242	0.67537
2883.20386	0.66498
2881.27529	0.65479
2879.34673	0.64506
2877.41816	0.63579
2875.48960	0.62639
2873.56104	0.61633
2871.63247	0.60575
2869.70391	0.59489
2867.77534	0.58372
2865.84678	0.57237
2863.91821	0.56098
2861.98965	0.54976
2860.06108	0.53902
2858.13252	0.52863
2856.20396	0.51827
2854.27539	0.50850
2852.34683	0.49978
2850.41826	0.49118
2848.48970	0.48212
2846.56113	0.47362
2844.63257	0.46635
2842.70400	0.45972
2840.77544	0.45337
2838.84687	0.44758
2836.91831	0.44224
2834.98975	0.43673
2833.06118	0.43087
2831.13262	0.42502
2829.20405	0.41935
2827.27549	0.41368
2825.34692	0.40784
2823.41836	0.40188
2821.48979	0.39595
2819.56123	0.39016
2817.63267	0.38447
2815.70410	0.37889
2813.77554	0.37350
2811.84697	0.36806
2809.91841	0.36243
2807.98984	0.35695
2806.06128	0.35183
2804.13271	0.34685
2802.20415	0.34174
2800.27559	0.33658
2798.34702	0.33157
2796.41846	0.32684
2794.48989	0.32235
2792.56133	0.31790
2790.63276	0.31342
2788.70420	0.30898
2786.77563	0.30461
2784.84707	0.30026
2782.91851	0.29593
2780.98994	0.29188
2779.06138	0.28810
2777.13281	0.28430
2775.20425	0.28048
2773.27568	0.27666
2771.34712	0.27285
2769.41855	0.26911
2767.48999	0.26547
2765.56143	0.26194
2763.63286	0.25845
2761.70430	0.25498
2759.77573	0.25166
2757.84717	0.24853
2755.91860	0.24554
2753.99004	0.24258
2752.06147	0.23963
2750.13291	0.23677
2748.20435	0.23390
2746.27578	0.23096
2744.34722	0.22801
2742.41865	0.22511
2740.49009	0.22237
2738.56152	0.21985
2736.63296	0.21746
2734.70439	0.21514
2732.77583	0.21280
2730.84727	0.21043
2728.91870	0.20803
2726.99014	0.20563
2725.06157	0.20337
2723.13301	0.20121
2721.20444	0.19909
2719.27588	0.19706
2717.34731	0.19513
2715.41875	0.19330
2713.49019	0.19153
2711.56162	0.18970
2709.63306	0.18791
2707.70449	0.18633
2705.77593	0.18487
2703.84736	0.18331
2701.91880	0.18163
2699.99023	0.17990
2698.06167	0.17822
2696.13311	0.17672
2694.20454	0.17543
2692.27598	0.17418
2690.34741	0.17288
2688.41885	0.17164
2686.49028	0.17047
2684.56172	0.16926
2682.63315	0.16806
2680.70459	0.16694
2678.77603	0.16581
2676.84746	0.16456
2674.91890	0.16330
2672.99033	0.16221
2671.06177	0.16125
2669.13320	0.16023
2667.20464	0.15910
2665.27607	0.15801
2663.34751	0.15717
2661.41895	0.15647
2659.49038	0.15571
2657.56182	0.15487
2655.63325	0.15408
2653.70469	0.15348
2651.77612	0.15300
2649.84756	0.15239
2647.91899	0.15159
2645.99043	0.15081
2644.06187	0.15020
2642.13330	0.14971
2640.20474	0.14924
2638.27617	0.14871
2636.34761	0.14821
2634.41904	0.14776
2632.49048	0.14727
2630.56191	0.14679
2628.63335	0.14646
2626.70479	0.14618
2624.77622	0.14587
2622.84766	0.14552
2620.91909	0.14504
2618.99053	0.14463
2617.06196	0.14448
2615.13340	0.14444
2613.20483	0.14434
2611.27627	0.14426
2609.34771	0.14417
2607.41914	0.14399
2605.49058	0.14376
2603.56201	0.14360
2601.63345	0.14351
2599.70488	0.14354
2597.77632	0.14371
2595.84775	0.14390
2593.91919	0.14395
2591.99062	0.14394
2590.06206	0.14399
2588.13350	0.14410
2586.20493	0.14424
2584.27637	0.14444
2582.34780	0.14465
2580.41924	0.14484
2578.49067	0.14513
2576.56211	0.14545
2574.63354	0.14569
2572.70498	0.14597
2570.77642	0.14628
2568.84785	0.14655
2566.91929	0.14685
2564.99072	0.14727
2563.06216	0.14778
2561.13359	0.14830
2559.20503	0.14880
2557.27646	0.14931
2555.34790	0.14986
2553.41934	0.15025
2551.49077	0.15052
2549.56221	0.15095
2547.63364	0.15153
2545.70508	0.15211
2543.77651	0.15269
2541.84795	0.15327
2539.91938	0.15388
2537.99082	0.15460
2536.06226	0.15531
2534.13369	0.15587
2532.20513	0.15646
2530.27656	0.15718
2528.34800	0.15789
2526.41943	0.15847
2524.49087	0.15901
2522.56230	0.15965
2520.63374	0.16041
2518.70518	0.16121
2516.77661	0.16191
2514.84805	0.16258
2512.91948	0.16342
2510.99092	0.16450
2509.06235	0.16555
2507.13379	0.16637
2505.20522	0.16701
2503.27666	0.16756
2501.34810	0.16819
2499.41953	0.16904
2497.49097	0.16997
2495.56240	0.17073
2493.63384	0.17135
2491.70527	0.17207
2489.77671	0.17298
2487.84814	0.17392
2485.91958	0.17472
2483.99102	0.17552
2482.06245	0.17653
2480.13389	0.17757
2478.20532	0.17846
2476.27676	0.17931
2474.34819	0.18014
2472.41963	0.18102
2470.49106	0.18197
2468.56250	0.18285
2466.63394	0.18364
2464.70537	0.18445
2462.77681	0.18532
2460.84824	0.18627
2458.91968	0.18723
2456.99111	0.18820
2455.06255	0.18920
2453.13398	0.19012
2451.20542	0.19095
2449.27686	0.19184
2447.34829	0.19281
2445.41973	0.19380
2443.49116	0.19486
2441.56260	0.19600
2439.63403	0.19713
2437.70547	0.19810
2435.77690	0.19892
2433.84834	0.19981
2431.91978	0.20095
2429.99121	0.20212
2428.06265	0.20314
2426.13408	0.20413
2424.20552	0.20520
2422.27695	0.20628
2420.34839	0.20735
2418.41982	0.20840
2416.49126	0.20941
2414.56270	0.21045
2412.63413	0.21155
2410.70557	0.21266
2408.77700	0.21379
2406.84844	0.21499
2404.91987	0.21617
2402.99131	0.21725
2401.06274	0.21835
2399.13418	0.21963
2397.20562	0.22100
2395.27705	0.22230
2393.34849	0.22357
2391.41992	0.22489
2389.49136	0.22631
2387.56279	0.22789
2385.63423	0.22980
2383.70566	0.23236
2381.77710	0.23568
2379.84854	0.23957
2377.91997	0.24382
2375.99141	0.24854
2374.06284	0.25379
2372.13428	0.25932
2370.20571	0.26507
2368.27715	0.27089
2366.34858	0.27617
2364.42002	0.28098
2362.49146	0.28582
2360.56289	0.28959
2358.63433	0.29075
2356.70576	0.28955
2354.77720	0.28718
2352.84863	0.28435
2350.92007	0.28091
2348.99150	0.27868
2347.06294	0.27967
2345.13437	0.28420
2343.20581	0.28964
2341.27725	0.29269
2339.34868	0.29421
2337.42012	0.29557
2335.49155	0.29672
2333.56299	0.29741
2331.63442	0.29827
2329.70586	0.29919
2327.77729	0.29950
2325.84873	0.29958
2323.92017	0.29974
2321.99160	0.29976
2320.06304	0.29956
2318.13447	0.29937
2316.20591	0.29939
2314.27734	0.29961
2312.34878	0.29999
2310.42021	0.30052
2308.49165	0.30107
2306.56309	0.30145
2304.63452	0.30186
2302.70596	0.30271
2300.77739	0.30388
2298.84883	0.30503
2296.92026	0.30625
2294.99170	0.30762
2293.06313	0.30897
2291.13457	0.31020
2289.20601	0.31149
2287.27744	0.31289
2285.34888	0.31425
2283.42031	0.31577
2281.49175	0.31764
2279.56318	0.31981
2277.63462	0.32207
2275.70605	0.32425
2273.77749	0.32635
2271.84893	0.32851
2269.92036	0.33067
2267.99180	0.33268
2266.06323	0.33455
2264.13467	0.33643
2262.20610	0.33841
2260.27754	0.34043
2258.34897	0.34249
2256.42041	0.34462
2254.49185	0.34674
2252.56328	0.34877
2250.63472	0.35076
2248.70615	0.35289
2246.77759	0.35507
2244.84902	0.35722
2242.92046	0.35939
2240.99189	0.36159
2239.06333	0.36380
2237.13477	0.36598
2235.20620	0.36813
2233.27764	0.37034
2231.34907	0.37267
2229.42051	0.37497
2227.49194	0.37709
2225.56338	0.37913
2223.63481	0.38127
2221.70625	0.38359
2219.77769	0.38600
2217.84912	0.38826
2215.92056	0.39030
2213.99199	0.39243
2212.06343	0.39464
2210.13486	0.39670
2208.20630	0.39871
2206.27773	0.40087
2204.34917	0.40308
2202.42061	0.40517
2200.49204	0.40710
2198.56348	0.40897
2196.63491	0.41094
2194.70635	0.41298
2192.77778	0.41498
2190.84922	0.41684
2188.92065	0.41859
2186.99209	0.42031
2185.06353	0.42204
2183.13496	0.42380
2181.20640	0.42562
2179.27783	0.42738
2177.34927	0.42890
2175.42070	0.43024
2173.49214	0.43168
2171.56357	0.43327
2169.63501	0.43485
2167.70645	0.43624
2165.77788	0.43737
2163.84932	0.43835
2161.92075	0.43940
2159.99219	0.44056
2158.06362	0.44167
2156.13506	0.44270
2154.20649	0.44360
2152.27793	0.44433
2150.34937	0.44503
2148.42080	0.44579
2146.49224	0.44649
2144.56367	0.44695
2142.63511	0.44721
2140.70654	0.44745
2138.77798	0.44776
2136.84941	0.44806
2134.92085	0.44820
2132.99229	0.44826
2131.06372	0.44823
2129.13516	0.44798
2127.20659	0.44762
2125.27803	0.44734
2123.34946	0.44698
2121.42090	0.44643
2119.49233	0.44575
2117.56377	0.44509
2115.63521	0.44449
2113.70664	0.44383
2111.77808	0.44298
2109.84951	0.44208
2107.92095	0.44120
2105.99238	0.44013
2104.06382	0.43887
2102.13525	0.43759
2100.20669	0.43633
2098.27812	0.43495
2096.34956	0.43343
2094.42100	0.43179
2092.49243	0.43016
2090.56387	0.42861
2088.63530	0.42695
2086.70674	0.42511
2084.77817	0.42314
2082.84961	0.42113
2080.92104	0.41910
2078.99248	0.41713
2077.06392	0.41518
2075.13535	0.41317
2073.20679	0.41101
2071.27822	0.40875
2069.34966	0.40650
2067.42109	0.40416
2065.49253	0.40171
2063.56396	0.39929
2061.63540	0.39693
2059.70684	0.39448
2057.77827	0.39197
2055.84971	0.38948
2053.92114	0.38690
2051.99258	0.38420
2050.06401	0.38154
2048.13545	0.37898
2046.20688	0.37639
2044.27832	0.37374
2042.34976	0.37110
2040.42119	0.36846
2038.49263	0.36576
2036.56406	0.36298
2034.63550	0.36017
2032.70693	0.35738
2030.77837	0.35463
2028.84980	0.35188
2026.92124	0.34916
2024.99268	0.34645
2023.06411	0.34367
2021.13555	0.34089
2019.20698	0.33816
2017.27842	0.33541
2015.34985	0.33259
2013.42129	0.32981
2011.49272	0.32708
2009.56416	0.32443
2007.63560	0.32177
2005.70703	0.31902
2003.77847	0.31637
2001.84990	0.31385
1999.92134	0.31132
1997.99277	0.30871
1996.06421	0.30608
1994.13564	0.30354
1992.20708	0.30109
1990.27852	0.29859
1988.34995	0.29607
1986.42139	0.29358
1984.49282	0.29119
1982.56426	0.28889
1980.63569	0.28662
1978.70713	0.28437
1976.77856	0.28216
1974.85000	0.27988
1972.92144	0.27759
1970.99287	0.27551
1969.06431	0.27363
1967.13574	0.27169
1965.20718	0.26960
1963.27861	0.26752
1961.35005	0.26556
1959.42148	0.26371
1957.49292	0.26193
1955.56436	0.26010
1953.63579	0.25828
1951.70723	0.25656
1949.77866	0.25498
1947.85010	0.25348
1945.92153	0.25208
1943.99297	0.25078
1942.06440	0.24937
1940.13584	0.24770
1938.20728	0.24609
1936.27871	0.24479
1934.35015	0.24361
1932.42158	0.24235
1930.49302	0.24104
1928.56445	0.23980
1926.63589	0.23874
1924.70732	0.23795
1922.77876	0.23725
1920.85020	0.23632
1918.92163	0.23529
1916.99307	0.23431
1915.06450	0.23336
1913.13594	0.23251
1911.20737	0.23183
1909.27881	0.23116
1907.35024	0.23052
1905.42168	0.22988
1903.49312	0.22925
1901.56455	0.22862
1899.63599	0.22804
1897.70742	0.22764
1895.77886	0.22737
1893.85029	0.22711
1891.92173	0.22686
1889.99316	0.22680
1888.06460	0.22661
1886.13604	0.22617
1884.20747	0.22577
1882.27891	0.22553
1880.35034	0.22545
1878.42178	0.22545
1876.49321	0.22543
1874.56465	0.22535
1872.63608	0.22543
1870.70752	0.22579
1868.77896	0.22642
1866.85039	0.22672
1864.92183	0.22653
1862.99326	0.22648
1861.06470	0.22670
1859.13613	0.22705
1857.20757	0.22739
1855.27900	0.22778
1853.35044	0.22821
1851.42187	0.22871
1849.49331	0.22931
1847.56475	0.23015
1845.63618	0.23125
1843.70762	0.23238
1841.77905	0.23305
1839.85049	0.23341
1837.92192	0.23414
1835.99336	0.23512
1834.06479	0.23610
1832.13623	0.23711
1830.20767	0.23862
1828.27910	0.24019
1826.35054	0.24120
1824.42197	0.24237
1822.49341	0.24361
1820.56484	0.24479
1818.63628	0.24610
1816.70771	0.24773
1814.77915	0.24945
1812.85059	0.25133
1810.92202	0.25348
1808.99346	0.25552
1807.06489	0.25723
1805.13633	0.25893
1803.20776	0.26120
1801.27920	0.26405
1799.35063	0.26713
1797.42207	0.26971
1795.49351	0.27207
1793.56494	0.27488
1791.63638	0.27853
1789.70781	0.28187
1787.77925	0.28426
1785.85068	0.28719
1783.92212	0.29082
1781.99355	0.29484
1780.06499	0.29911
1778.13643	0.30337
1776.20786	0.30733
1774.27930	0.31163
1772.35073	0.31745
1770.42217	0.32377
1768.49360	0.32904
1766.56504	0.33404
1764.63647	0.33921
1762.70791	0.34506
1760.77935	0.35257
1758.85078	0.35954
1756.92222	0.36645
1754.99365	0.37402
1753.06509	0.38080
1751.13652	0.38882
1749.20796	0.39915
1747.27939	0.40949
1745.35083	0.41843
1743.42227	0.42767
1741.49370	0.43782
1739.56514	0.45001
1737.63657	0.46244
1735.70801	0.47340
1733.77944	0.48997
1731.85088	0.50986
1729.92231	0.52548
1727.99375	0.54112
1726.06519	0.55783
1724.13662	0.57619
1722.20806	0.59622
1720.27949	0.61463
1718.35093	0.63615
1716.42236	0.66838
1714.49380	0.69920
1712.56523	0.72393
1710.63667	0.74785
1708.70811	0.77355
1706.77954	0.80271
1704.85098	0.83781
1702.92241	0.86923
1700.99385	0.90003
1699.06528	0.94608
1697.13672	0.98886
1695.20815	1.03319
1693.27959	1.07678
1691.35103	1.11216
1689.42246	1.15312
1687.49390	1.19641
1685.56533	1.23808
1683.63677	1.30290
1681.70820	1.37072
1679.77964	1.41388
1677.85107	1.45472
1675.92251	1.50166
1673.99395	1.56031
1672.06538	1.61324
1670.13682	1.66536
1668.20825	1.73369
1666.27969	1.79019
1664.35112	1.83806
1662.42256	1.89850
1660.49399	1.96862
1658.56543	2.02425
1656.63687	2.06838
1654.70830	2.10777
1652.77974	2.16886
1650.85117	2.22563
1648.92261	2.24317
1646.99404	2.26509
1645.06548	2.29038
1643.13691	2.30718
1641.20835	2.31579
1639.27979	2.32321
1637.35122	2.32594
1635.42266	2.32195
1633.49409	2.31491
1631.56553	2.30199
1629.63696	2.28245
1627.70840	2.25037
1625.77983	2.21488
1623.85127	2.17197
1621.92271	2.11963
1619.99414	2.07224
1618.06558	2.02522
1616.13701	1.95947
1614.20845	1.89420
1612.27988	1.84476
1610.35132	1.79257
1608.42275	1.73550
1606.49419	1.67924
1604.56562	1.62788
1602.63706	1.57881
1600.70850	1.53090
1598.77993	1.48655
1596.85137	1.44505
1594.92280	1.40529
1592.99424	1.36725
1591.06567	1.33258
1589.13711	1.30052
1587.20854	1.27104
1585.27998	1.24391
1583.35142	1.21876
1581.42285	1.19625
1579.49429	1.17741
1577.56572	1.16082
1575.63716	1.14127
1573.70859	1.12445
1571.78003	1.11379
1569.85146	1.10342
1567.92290	1.09268
1565.99434	1.08546
1564.06577	1.08091
1562.13721	1.07774
1560.20864	1.07677
1558.28008	1.08092
1556.35151	1.08602
1554.42295	1.08813
1552.49438	1.09018
1550.56582	1.09070
1548.63726	1.08821
1546.70869	1.08286
1544.78013	1.07448
1542.85156	1.06259
1540.92300	1.04415
1538.99443	1.01536
1537.06587	0.99426
1535.13730	0.97940
1533.20874	0.95940
1531.28018	0.93799
1529.35161	0.92235
1527.42305	0.90780
1525.49448	0.89277
1523.56592	0.87976
1521.63735	0.86742
1519.70879	0.85541
1517.78022	0.84559
1515.85166	0.83400
1513.92310	0.82135
1511.99453	0.81006
1510.06597	0.79990
1508.13740	0.79011
1506.20884	0.77498
1504.28027	0.76195
1502.35171	0.75478
1500.42314	0.74855
1498.49458	0.74190
1496.56602	0.73408
1494.63745	0.72618
1492.70889	0.72008
1490.78032	0.71495
1488.85176	0.70903
1486.92319	0.70315
1484.99463	0.69851
1483.06606	0.69497
1481.13750	0.69205
1479.20894	0.68978
1477.28037	0.68849
1475.35181	0.68806
1473.42324	0.68809
1471.49468	0.68752
1469.56611	0.68579
1467.63755	0.68360
1465.70898	0.68167
1463.78042	0.68044
1461.85186	0.67984
1459.92329	0.67973
1457.99473	0.68008
1456.06616	0.67988
1454.13760	0.67821
1452.20903	0.67614
1450.28047	0.67378
1448.35190	0.67120
1446.42334	0.66859
1444.49478	0.66621
1442.56621	0.66390
1440.63765	0.66140
1438.70908	0.65880
1436.78052	0.65565
1434.85195	0.65198
1432.92339	0.64904
1430.99482	0.64705
1429.06626	0.64594
1427.13770	0.64557
1425.20913	0.64578
1423.28057	0.64648
1421.35200	0.64718
1419.42344	0.64776
1417.49487	0.64787
1415.56631	0.64690
1413.63774	0.64593
1411.70918	0.64586
1409.78062	0.64678
1407.85205	0.64824
1405.92349	0.65000
1403.99492	0.65168
1402.06636	0.65230
1400.13779	0.65178
1398.20923	0.65029
1396.28066	0.64769
1394.35210	0.64379
1392.42354	0.63929
1390.49497	0.63514
1388.56641	0.63105
1386.63784	0.62620
1384.70928	0.62085
1382.78071	0.61586
1380.85215	0.61141
1378.92358	0.60771
1376.99502	0.60497
1375.06646	0.60310
1373.13789	0.60175
1371.20933	0.60085
1369.28076	0.60014
1367.35220	0.59894
1365.42363	0.59726
1363.49507	0.59567
1361.56650	0.59424
1359.63794	0.59283
1357.70937	0.59148
1355.78081	0.59023
1353.85225	0.58926
1351.92368	0.58843
1349.99512	0.58751
1348.06655	0.58661
1346.13799	0.58580
1344.20942	0.58495
1342.28086	0.58411
1340.35229	0.58352
1338.42373	0.58306
1336.49517	0.58244
1334.56660	0.58181
1332.63804	0.58159
1330.70947	0.58181
1328.78091	0.58221
1326.85234	0.58279
1324.92378	0.58348
1322.99521	0.58417
1321.06665	0.58489
1319.13809	0.58560
1317.20952	0.58604
1315.28096	0.58601
1313.35239	0.58563
1311.42383	0.58503
1309.49526	0.58440
1307.56670	0.58380
1305.63813	0.58325
1303.70957	0.58273
1301.78101	0.58221
1299.85244	0.58143
1297.92388	0.58020
1295.99531	0.57873
1294.06675	0.57746
1292.13818	0.57641
1290.20962	0.57527
1288.28105	0.57410
1286.35249	0.57294
1284.42393	0.57168
1282.49536	0.57027
1280.56680	0.56871
1278.63823	0.56711
1276.70967	0.56579
1274.78110	0.56481
1272.85254	0.56395
1270.92397	0.56306
1268.99541	0.56220
1267.06685	0.56151
1265.13828	0.56090
1263.20972	0.56024
1261.28115	0.55949
1259.35259	0.55864
1257.42402	0.55782
1255.49546	0.55734
1253.56689	0.55722
1251.63833	0.55725
1249.70977	0.55735
1247.78120	0.55738
1245.85264	0.55720
1243.92407	0.55670
1241.99551	0.55581
1240.06694	0.55457
1238.13838	0.55300
1236.20981	0.55108
1234.28125	0.54878
1232.35269	0.54633
1230.42412	0.54405
1228.49556	0.54208
1226.56699	0.54027
1224.63843	0.53846
1222.70986	0.53663
1220.78130	0.53498
1218.85273	0.53368
1216.92417	0.53262
1214.99561	0.53164
1213.06704	0.53071
1211.13848	0.52996
1209.20991	0.52939
1207.28135	0.52873
1205.35278	0.52779
1203.42422	0.52680
1201.49565	0.52583
1199.56709	0.52482
1197.63853	0.52388
1195.70996	0.52314
1193.78140	0.52250
1191.85283	0.52190
1189.92427	0.52146
1187.99570	0.52115
1186.06714	0.52091
1184.13857	0.52095
1182.21001	0.52137
1180.28145	0.52212
1178.35288	0.52323
1176.42432	0.52463
1174.49575	0.52602
1172.56719	0.52695
1170.63862	0.52729
1168.71006	0.52724
1166.78149	0.52708
1164.85293	0.52695
1162.92437	0.52694
1160.99580	0.52696
1159.06724	0.52663
1157.13867	0.52591
1155.21011	0.52502
1153.28154	0.52388
1151.35298	0.52224
1149.42441	0.52003
1147.49585	0.51746
1145.56729	0.51482
1143.63872	0.51224
1141.71016	0.50982
1139.78159	0.50780
1137.85303	0.50633
1135.92446	0.50546
1133.99590	0.50496
1132.06733	0.50455
1130.13877	0.50423
1128.21021	0.50381
1126.28164	0.50302
1124.35308	0.50216
1122.42451	0.50171
1120.49595	0.50159
1118.56738	0.50168
1116.63882	0.50210
1114.71025	0.50263
1112.78169	0.50301
1110.85312	0.50345
1108.92456	0.50427
1106.99600	0.50537
1105.06743	0.50657
1103.13887	0.50784
1101.21030	0.50910
1099.28174	0.51048
1097.35317	0.51248
1095.42461	0.51517
1093.49604	0.51869
1091.56748	0.52336
1089.63892	0.52909
1087.71035	0.53589
1085.78179	0.54364
1083.85322	0.55162
1081.92466	0.55894
1079.99609	0.56453
1078.06753	0.56735
1076.13896	0.56711
1074.21040	0.56419
1072.28184	0.55903
1070.35327	0.55231
1068.42471	0.54511
1066.49614	0.53815
1064.56758	0.53170
1062.63901	0.52609
1060.71045	0.52118
1058.78188	0.51664
1056.85332	0.51250
1054.92476	0.50899
1052.99619	0.50625
1051.06763	0.50408
1049.13906	0.50212
1047.21050	0.50056
1045.28193	0.49959
1043.35337	0.49910
1041.42480	0.49887
1039.49624	0.49856
1037.56768	0.49828
1035.63911	0.49817
1033.71055	0.49797
1031.78198	0.49753
1029.85342	0.49671
1027.92485	0.49532
1025.99629	0.49369
1024.06772	0.49255
1022.13916	0.49207
1020.21060	0.49202
1018.28203	0.49215
1016.35347	0.49219
1014.42490	0.49212
1012.49634	0.49197
1010.56777	0.49183
1008.63921	0.49211
1006.71064	0.49289
1004.78208	0.49395
1002.85352	0.49560
1000.92495	0.49815
998.99639	0.50151
997.06782	0.50562
995.13926	0.51016
993.21069	0.51444
991.28213	0.51788
989.35356	0.52012
987.42500	0.52106
985.49644	0.52119
983.56787	0.52127
981.63931	0.52171
979.71074	0.52254
977.78218	0.52401
975.85361	0.52617
973.92505	0.52876
971.99648	0.53163
970.06792	0.53473
968.13936	0.53813
966.21079	0.54200
964.28223	0.54651
962.35366	0.55154
960.42510	0.55672
958.49653	0.56215
956.56797	0.56796
954.63940	0.57402
952.71084	0.58029
950.78228	0.58664
948.85371	0.59276
946.92515	0.59876
944.99658	0.60505
943.06802	0.61137
941.13945	0.61716
939.21089	0.62261
937.28232	0.62825
935.35376	0.63428
933.42520	0.64038
931.49663	0.64606
929.56807	0.65157
927.63950	0.65726
925.71094	0.66311
923.78237	0.66929
921.85381	0.67606
919.92524	0.68312
917.99668	0.68974
916.06812	0.69640
914.13955	0.70403
912.21099	0.71212
910.28242	0.72016
908.35386	0.72841
906.42529	0.73601
904.49673	0.74319
902.56816	0.75191
900.63960	0.76210
898.71104	0.77229
896.78247	0.78225
894.85391	0.79224
892.92534	0.80200
890.99678	0.81202
889.06821	0.82233
887.13965	0.83189
885.21108	0.84139
883.28252	0.85263
881.35396	0.86657
879.42539	0.88134
877.49683	0.89316
875.56826	0.90192
873.63970	0.91111
871.71113	0.92216
869.78257	0.93330
867.85400	0.94419
865.92544	0.95682
863.99687	0.97036
862.06831	0.98161
860.13975	0.99094
858.21118	1.00213
856.28262	1.01538
854.35405	1.02810
852.42549	1.04093
850.49692	1.05323
848.56836	1.06296
846.63979	1.07157
844.71123	1.07957
842.78267	1.08849
840.85410	1.10062
838.92554	1.11298
836.99697	1.12383
835.06841	1.13499
833.13984	1.14551
831.21128	1.15360
829.28271	1.16038
827.35415	1.16926
825.42559	1.18737
823.49702	1.21032
821.56846	1.21939
819.63989	1.21810
817.71133	1.22245
815.78276	1.23585
813.85420	1.25031
811.92563	1.25496
809.99707	1.25006
808.06851	1.24855
806.13994	1.26312
804.21138	1.27700
802.28281	1.26967
800.35425	1.26231
798.42568	1.27567
796.49712	1.28740
794.56855	1.28435
792.63999	1.29016
790.71143	1.29287
788.78286	1.28321
786.85430	1.28421
784.92573	1.29425
782.99717	1.29525
781.06860	1.29457
779.14004	1.30989
777.21147	1.30375
775.28291	1.23746
773.35435	1.18645
771.42578	1.21868
769.49722	1.31047
767.56865	1.35866
765.64009	1.29451
763.71152	1.21741
761.78296	1.19263
759.85439	1.18097
757.92583	1.17415
755.99727	1.17786
754.06870	1.13946
752.14014	1.07425
750.21157	1.04125
748.28301	1.04059
746.35444	1.04581
744.42588	1.02609
742.49731	0.93770
740.56875	0.80414
738.64019	0.68760
736.71162	0.58053
734.78306	0.49592
732.85449	0.45256
730.92593	0.25252
728.99736	-0.29329
727.06880	4.36241
725.14023	4.35084
723.21167	4.33927
721.28311	4.32770
719.35454	-0.29517
717.42598	0.07065
715.49741	0.17409
713.56885	0.28018
711.64028	0.40555
709.71172	0.45285
707.78315	0.45691
705.85459	0.48629
703.92603	0.47415
701.99746	0.43167
700.06890	0.44004
698.14033	0.52477
696.21177	0.62821
694.28320	0.60379
692.35464	0.48099
690.42607	0.42450
688.49751	0.44657
686.56895	0.49860
684.64038	0.51089
682.71182	0.46340
680.78325	0.43054
678.85469	0.44343
676.92612	0.47153
674.99756	0.50077
673.06899	0.52936
671.14043	0.51366
669.21187	0.46642
667.28330	0.44210
665.35474	0.45719
663.42617	0.50993
661.49761	0.53483
659.56904	0.48296
657.64048	0.44800
655.71191	0.45568
653.78335	0.45883
651.85479	0.43426
649.92622	0.41622
647.99766	0.41237
646.06909	0.38502
644.14053	0.37210
642.21196	0.41308
640.28340	0.46852
638.35483	0.52225
636.42627	0.57793
634.49771	0.59041
632.56914	0.55013
630.64058	0.47464
628.71201	0.40724
626.78345	0.38722
624.85488	0.39843
622.92632	0.43913
620.99775	0.48213
619.06919	0.46098
617.14062	0.42138
615.21206	0.37360
613.28350	0.33034
611.35493	0.33417
609.42637	0.37782
607.49780	0.42655
605.56924	0.43006
603.64067	0.37405
601.71211	0.34312
599.78354	0.35875
597.85498	0.38888
595.92642	0.43219
593.99785	0.45792
592.06929	0.43647
590.14072	0.42953
588.21216	0.45881
586.28359	0.46036
584.35503	0.43251
582.42646	0.41534
580.49790	0.39583
578.56934	0.38031
576.64077	0.37489
574.71221	0.38656
572.78364	0.42079
570.85508	0.43740
568.92651	0.43484
566.99795	0.45363
565.06938	0.45580
563.14082	0.40429
561.21226	0.35651
559.28369	0.33880
557.35513	0.34350
555.42656	0.38546
553.49800	0.46247
551.56943	0.45610
549.64087	0.40130
547.71230	0.39497
545.78374	0.37266
543.85518	0.32954
541.92661	0.31001
539.99805	0.31538
538.06948	0.32394
536.14092	0.33209
534.21235	0.36778
532.28379	0.43377
530.35522	0.46553
528.42666	0.42827
526.49810	0.40420
524.56953	0.40093
522.64097	0.38021
520.71240	0.34895
518.78384	0.31524
516.85527	0.29741
514.92671	0.30947
512.99814	0.34413
511.06958	0.38082
509.14102	0.37999
507.21245	0.35649
505.28389	0.36390
503.35532	0.36327
501.42676	0.31820
499.49819	0.31063
