3997.91411	0.06488
3995.98555	0.06489
3994.05698	0.06494
3992.12842	0.06521
3990.19985	0.06593
3988.27129	0.06681
3986.34272	0.06725
3984.41416	0.06727
3982.48560	0.06738
3980.55703	0.06767
3978.62847	0.06791
3976.69990	0.06799
3974.77134	0.06806
3972.84277	0.06842
3970.91421	0.06888
3968.98564	0.06920
3967.05708	0.06951
3965.12852	0.06970
3963.19995	0.06958
3961.27139	0.06941
3959.34282	0.06944
3957.41426	0.06970
3955.48569	0.06999
3953.55713	0.06988
3951.62856	0.06947
3949.70000	0.06934
3947.77144	0.06965
3945.84287	0.07013
3943.91431	0.07076
3941.98574	0.07121
3940.05718	0.07074
3938.12861	0.06983
3936.20005	0.06941
3934.27148	0.06960
3932.34292	0.07018
3930.41436	0.07062
3928.48579	0.07041
3926.55723	0.07024
3924.62866	0.07075
3922.70010	0.07101
3920.77153	0.07061
3918.84297	0.07031
3916.91440	0.07025
3914.98584	0.06990
3913.05728	0.06926
3911.12871	0.06868
3909.20015	0.06835
3907.27158	0.06861
3905.34302	0.06971
3903.41445	0.07111
3901.48589	0.07157
3899.55732	0.07112
3897.62876	0.07040
3895.70020	0.06980
3893.77163	0.06983
3891.84307	0.07036
3889.91450	0.07042
3887.98594	0.06992
3886.05737	0.06996
3884.12881	0.07052
3882.20024	0.07079
3880.27168	0.07104
3878.34312	0.07100
3876.41455	0.07050
3874.48599	0.07051
3872.55742	0.07110
3870.62886	0.07178
3868.70029	0.07248
3866.77173	0.07282
3864.84316	0.07301
3862.91460	0.07307
3860.98604	0.07262
3859.05747	0.07233
3857.12891	0.07263
3855.20034	0.07361
3853.27178	0.07556
3851.34321	0.07725
3849.41465	0.07681
3847.48608	0.07596
3845.55752	0.07575
3843.62896	0.07630
3841.70039	0.07731
3839.77183	0.07862
3837.84326	0.08039
3835.91470	0.08162
3833.98613	0.08170
3832.05757	0.08143
3830.12900	0.08121
3828.20044	0.08131
3826.27187	0.08195
3824.34331	0.08279
3822.41475	0.08380
3820.48618	0.08570
3818.55762	0.08750
3816.62905	0.08843
3814.70049	0.08882
3812.77192	0.08846
3810.84336	0.08839
3808.91479	0.08921
3806.98623	0.09073
3805.05767	0.09224
3803.12910	0.09337
3801.20054	0.09522
3799.27197	0.09699
3797.34341	0.09765
3795.41484	0.09869
3793.48628	0.09969
3791.55771	0.10006
3789.62915	0.10071
3787.70059	0.10205
3785.77202	0.10385
3783.84346	0.10573
3781.91489	0.10720
3779.98633	0.10856
3778.05776	0.11014
3776.12920	0.11139
3774.20063	0.11249
3772.27207	0.11406
3770.34351	0.11646
3768.41494	0.11920
3766.48638	0.12125
3764.55781	0.12302
3762.62925	0.12462
3760.70068	0.12629
3758.77212	0.12895
3756.84355	0.13203
3754.91499	0.13402
3752.98643	0.13561
3751.05786	0.13834
3749.12930	0.14238
3747.20073	0.14551
3745.27217	0.14799
3743.34360	0.15206
3741.41504	0.15646
3739.48647	0.15965
3737.55791	0.16339
3735.62935	0.16929
3733.70078	0.17625
3731.77222	0.18113
3729.84365	0.18478
3727.91509	0.18877
3725.98652	0.19417
3724.05796	0.20065
3722.12939	0.20679
3720.20083	0.21290
3718.27227	0.21939
3716.34370	0.22596
3714.41514	0.23291
3712.48657	0.24248
3710.55801	0.25673
3708.62944	0.27141
3706.70088	0.28269
3704.77231	0.29347
3702.84375	0.30636
3700.91519	0.32307
3698.98662	0.34169
3697.05806	0.35959
3695.12949	0.37793
3693.20093	0.39662
3691.27236	0.41677
3689.34380	0.44366
3687.41523	0.47808
3685.48667	0.50906
3683.55811	0.53562
3681.62954	0.56346
3679.70098	0.59450
3677.77241	0.62752
3675.84385	0.66684
3673.91528	0.71946
3671.98672	0.76238
3670.05815	0.80056
3668.12959	0.85341
3666.20103	0.90182
3664.27246	0.94212
3662.34390	0.98523
3660.41533	1.03177
3658.48677	1.07773
3656.55820	1.12689
3654.62964	1.18211
3652.70107	1.22845
3650.77251	1.26819
3648.84395	1.32294
3646.91538	1.39164
3644.98682	1.44283
3643.05825	1.48150
3641.12969	1.52106
3639.20112	1.56547
3637.27256	1.61016
3635.34399	1.65327
3633.41543	1.69679
3631.48687	1.73756
3629.55830	1.77790
3627.62974	1.83092
3625.70117	1.88173
3623.77261	1.91618
3621.84404	1.94891
3619.91548	1.98669
3617.98691	2.03242
3616.05835	2.07569
3614.12979	2.11098
3612.20122	2.14850
3610.27266	2.18723
3608.34409	2.22741
3606.41553	2.27121
3604.48696	2.31137
3602.55840	2.34673
3600.62983	2.38540
3598.70127	2.42678
3596.77271	2.46513
3594.84414	2.50356
3592.91558	2.54529
3590.98701	2.58628
3589.05845	2.62430
3587.12988	2.66800
3585.20132	2.71566
3583.27275	2.75656
3581.34419	2.79443
3579.41562	2.83491
3577.48706	2.87738
3575.55850	2.91927
3573.62993	2.96225
3571.70137	3.00514
3569.77280	3.04562
3567.84424	3.08701
3565.91567	3.13742
3563.98711	3.18843
3562.05854	3.23169
3560.12998	3.27502
3558.20142	3.32070
3556.27285	3.36501
3554.34429	3.40649
3552.41572	3.45221
3550.48716	3.50284
3548.55859	3.54866
3546.63003	3.58954
3544.70146	3.63577
3542.77290	3.68667
3540.84434	3.73503
3538.91577	3.78101
3536.98721	3.82608
3535.05864	3.87375
3533.13008	3.92133
3531.20151	3.96626
3529.27295	4.01216
3527.34438	4.06089
3525.41582	4.10965
3523.48726	4.15711
3521.55869	4.20540
3519.63013	4.25566
3517.70156	4.30726
3515.77300	4.35498
3513.84443	4.39857
3511.91587	4.44198
3509.98730	4.48897
3508.05874	4.54444
3506.13018	4.60203
3504.20161	4.65051
3502.27305	4.69468
3500.34448	4.74324
3498.41592	4.79261
3496.48735	4.84140
3494.55879	4.88944
3492.63022	4.93604
3490.70166	4.98515
3488.77310	5.03675
3486.84453	5.08713
3484.91597	5.13263
3482.98740	5.17288
3481.05884	5.21908
3479.13027	5.27806
3477.20171	5.33802
3475.27314	5.38745
3473.34458	5.42704
3471.41602	5.46050
3469.48745	5.49524
3467.55889	5.54470
3465.63032	5.60737
3463.70176	5.66551
3461.77319	5.70741
3459.84463	5.74999
3457.91606	5.81220
3455.98750	5.87238
3454.05894	5.90783
3452.13037	5.94138
3450.20181	5.99685
3448.27324	6.06818
3446.34468	6.13986
3444.41611	6.19223
3442.48755	6.23163
3440.55898	6.27221
3438.63042	6.31168
3436.70186	6.34788
3434.77329	6.38967
3432.84473	6.44553
3430.91616	6.50230
3428.98760	6.54878
3427.05903	6.58692
3425.13047	6.63121
3423.20190	6.68189
3421.27334	6.73491
3419.34478	6.79459
3417.41621	6.85024
3415.48765	6.90010
3413.55908	6.96124
3411.63052	7.01957
3409.70195	7.04846
3407.77339	7.07738
3405.84482	7.11220
3403.91626	7.15660
3401.98770	7.22362
3400.05913	7.28851
3398.13057	7.34422
3396.20200	7.40392
3394.27344	7.44262
3392.34487	7.42763
3390.41631	7.42761
3388.48774	7.48924
3386.55918	7.57740
3384.63062	7.63419
3382.70205	7.64616
3380.77349	7.62831
3378.84492	7.58457
3376.91636	7.58827
3374.98779	7.67302
3373.05923	7.76953
3371.13066	7.82328
3369.20210	7.86527
3367.27354	7.86740
3365.34497	7.80494
3363.41641	7.75831
3361.48784	7.78692
3359.55928	7.88825
3357.63071	8.01442
3355.70215	8.09275
3353.77358	8.08237
3351.84502	8.06402
3349.91646	8.04970
3347.98789	8.02029
3346.05933	7.98154
3344.13076	7.95860
3342.20220	8.01833
3340.27363	8.08874
3338.34507	8.08433
3336.41650	8.01932
3334.48794	7.97408
3332.55937	7.98188
3330.63081	8.03406
3328.70225	8.13980
3326.77368	8.19150
3324.84512	8.11790
3322.91655	8.03960
3320.98799	8.06911
3319.05942	8.16732
3317.13086	8.21357
3315.20229	8.16770
3313.27373	8.12143
3311.34517	8.11379
3309.41660	8.09375
3307.48804	8.05867
3305.55947	8.02044
3303.63091	7.98145
3301.70234	7.95392
3299.77378	7.97827
3297.84521	8.08750
3295.91665	8.22911
3293.98809	8.26280
3292.05952	8.18952
3290.13096	8.13344
3288.20239	8.13606
3286.27383	8.18478
3284.34526	8.23301
3282.41670	8.25438
3280.48813	8.24839
3278.55957	8.23040
3276.63101	8.18688
3274.70244	8.12661
3272.77388	8.10642
3270.84531	8.11162
3268.91675	8.14310
3266.98818	8.22073
3265.05962	8.30555
3263.13105	8.36106
3261.20249	8.33871
3259.27393	8.22334
3257.34536	8.14178
3255.41680	8.14116
3253.48823	8.15141
3251.55967	8.17474
3249.63110	8.23731
3247.70254	8.31089
3245.77397	8.32219
3243.84541	8.23828
3241.91685	8.15764
3239.98828	8.15174
3238.05972	8.15209
3236.13115	8.13029
3234.20259	8.17274
3232.27402	8.25119
3230.34546	8.27490
3228.41689	8.27308
3226.48833	8.21680
3224.55977	8.10251
3222.63120	8.06475
3220.70264	8.14551
3218.77407	8.24149
3216.84551	8.22333
3214.91694	8.11677
3212.98838	8.01820
3211.05981	7.98672
3209.13125	7.99082
3207.20269	7.91436
3205.27412	7.80441
3203.34556	7.77370
3201.41699	7.77566
3199.48843	7.72976
3197.55986	7.67057
3195.63130	7.62748
3193.70273	7.56925
3191.77417	7.50494
3189.84561	7.48569
3187.91704	7.51090
3185.98848	7.52107
3184.05991	7.49822
3182.13135	7.45500
3180.20278	7.38600
3178.27422	7.30418
3176.34565	7.24138
3174.41709	7.19813
3172.48853	7.14809
3170.55996	7.08918
3168.63140	7.03099
3166.70283	6.95961
3164.77427	6.86528
3162.84570	6.77217
3160.91714	6.70603
3158.98857	6.65081
3157.06001	6.57575
3155.13145	6.49525
3153.20288	6.42909
3151.27432	6.37284
3149.34575	6.32277
3147.41719	6.27045
3145.48862	6.21149
3143.56006	6.14992
3141.63149	6.07945
3139.70293	5.99759
3137.77437	5.91895
3135.84580	5.84571
3133.91724	5.77249
3131.98867	5.70467
3130.06011	5.64240
3128.13154	5.57588
3126.20298	5.50047
3124.27441	5.41934
3122.34585	5.33983
3120.41729	5.27221
3118.48872	5.21189
3116.56016	5.14731
3114.63159	5.07866
3112.70303	5.00960
3110.77446	4.93851
3108.84590	4.86585
3106.91733	4.79792
3104.98877	4.73309
3103.06021	4.66602
3101.13164	4.59698
3099.20308	4.52864
3097.27451	4.46264
3095.34595	4.39849
3093.41738	4.33517
3091.48882	4.27133
3089.56025	4.20659
3087.63169	4.14213
3085.70312	4.07890
3083.77456	4.01561
3081.84600	3.95311
3079.91743	3.89389
3077.98887	3.83585
3076.06030	3.77610
3074.13174	3.71532
3072.20317	3.65583
3070.27461	3.59901
3068.34604	3.54412
3066.41748	3.48837
3064.48892	3.43041
3062.56035	3.37249
3060.63179	3.31672
3058.70322	3.26318
3056.77466	3.21188
3054.84609	3.16128
3052.91753	3.10952
3050.98896	3.05842
3049.06040	3.00833
3047.13184	2.95727
3045.20327	2.90609
3043.27471	2.85637
3041.34614	2.80809
3039.41758	2.76094
3037.48901	2.71475
3035.56045	2.66890
3033.63188	2.62301
3031.70332	2.57721
3029.77476	2.53220
3027.84619	2.48867
3025.91763	2.44590
3023.98906	2.40332
3022.06050	2.36151
3020.13193	2.32069
3018.20337	2.28029
3016.27480	2.23988
3014.34624	2.20033
3012.41768	2.16209
3010.48911	2.12395
3008.56055	2.08606
3006.63198	2.04963
3004.70342	2.01429
3002.77485	1.97932
3000.84629	1.94489
2998.91772	1.91101
2996.98916	1.87795
2995.06060	1.84591
2993.13203	1.81435
2991.20347	1.78315
2989.27490	1.75271
2987.34634	1.72303
2985.41777	1.69398
2983.48921	1.66546
2981.56064	1.63744
2979.63208	1.61019
2977.70352	1.58361
2975.77495	1.55741
2973.84639	1.53167
2971.91782	1.50668
2969.98926	1.48240
2968.06069	1.45833
2966.13213	1.43415
2964.20356	1.41007
2962.27500	1.38625
2960.34644	1.36262
2958.41787	1.33904
2956.48931	1.31508
2954.56074	1.29092
2952.63218	1.26706
2950.70361	1.24350
2948.77505	1.22058
2946.84648	1.19849
2944.91792	1.17672
2942.98936	1.15504
2941.06079	1.13388
2939.13223	1.11359
2937.20366	1.09388
2935.27510	1.07412
2933.34653	1.05413
2931.41797	1.03397
2929.48940	1.01433
2927.56084	0.99577
2925.63228	0.97745
2923.70371	0.95918
2921.77515	0.94155
2919.84658	0.92445
2917.91802	0.90789
2915.98945	0.89169
2914.06089	0.87518
2912.13232	0.85861
2910.20376	0.84292
2908.27520	0.82809
2906.34663	0.81345
2904.41807	0.79890
2902.48950	0.78472
2900.56094	0.77092
2898.63237	0.75740
2896.70381	0.74401
2894.77524	0.73084
2892.84668	0.71835
2890.91812	0.70663
2888.98955	0.69523
2887.06099	0.68405
2885.13242	0.67344
2883.20386	0.66323
2881.27529	0.65310
2879.34673	0.64313
2877.41816	0.63348
2875.48960	0.62408
2873.56104	0.61440
2871.63247	0.60401
2869.70391	0.59288
2867.77534	0.58138
2865.84678	0.57011
2863.91821	0.55928
2861.98965	0.54858
2860.06108	0.53798
2858.13252	0.52776
2856.20396	0.51806
2854.27539	0.50896
2852.34683	0.50033
2850.41826	0.49185
2848.48970	0.48363
2846.56113	0.47584
2844.63257	0.46850
2842.70400	0.46165
2840.77544	0.45525
2838.84687	0.44921
2836.91831	0.44338
2834.98975	0.43753
2833.06118	0.43154
2831.13262	0.42551
2829.20405	0.41955
2827.27549	0.41363
2825.34692	0.40781
2823.41836	0.40210
2821.48979	0.39641
2819.56123	0.39069
2817.63267	0.38488
2815.70410	0.37917
2813.77554	0.37369
2811.84697	0.36825
2809.91841	0.36290
2807.98984	0.35781
2806.06128	0.35271
2804.13271	0.34755
2802.20415	0.34265
2800.27559	0.33795
2798.34702	0.33320
2796.41846	0.32843
2794.48989	0.32390
2792.56133	0.31943
2790.63276	0.31488
2788.70420	0.31033
2786.77563	0.30586
2784.84707	0.30168
2782.91851	0.29777
2780.98994	0.29379
2779.06138	0.28974
2777.13281	0.28575
2775.20425	0.28188
2773.27568	0.27826
2771.34712	0.27486
2769.41855	0.27149
2767.48999	0.26811
2765.56143	0.26472
2763.63286	0.26124
2761.70430	0.25774
2759.77573	0.25446
2757.84717	0.25137
2755.91860	0.24820
2753.99004	0.24498
2752.06147	0.24189
2750.13291	0.23894
2748.20435	0.23614
2746.27578	0.23342
2744.34722	0.23075
2742.41865	0.22813
2740.49009	0.22556
2738.56152	0.22303
2736.63296	0.22050
2734.70439	0.21798
2732.77583	0.21548
2730.84727	0.21307
2728.91870	0.21083
2726.99014	0.20869
2725.06157	0.20655
2723.13301	0.20433
2721.20444	0.20208
2719.27588	0.19996
2717.34731	0.19804
2715.41875	0.19624
2713.49019	0.19451
2711.56162	0.19275
2709.63306	0.19100
2707.70449	0.18939
2705.77593	0.18787
2703.84736	0.18625
2701.91880	0.18464
2699.99023	0.18323
2698.06167	0.18186
2696.13311	0.18038
2694.20454	0.17906
2692.27598	0.17789
2690.34741	0.17654
2688.41885	0.17512
2686.49028	0.17391
2684.56172	0.17283
2682.63315	0.17166
2680.70459	0.17037
2678.77603	0.16923
2676.84746	0.16839
2674.91890	0.16760
2672.99033	0.16659
2671.06177	0.16549
2669.13320	0.16444
2667.20464	0.16345
2665.27607	0.16260
2663.34751	0.16176
2661.41895	0.16086
2659.49038	0.16011
2657.56182	0.15948
2655.63325	0.15877
2653.70469	0.15811
2651.77612	0.15759
2649.84756	0.15707
2647.91899	0.15646
2645.99043	0.15584
2644.06187	0.15531
2642.13330	0.15482
2640.20474	0.15432
2638.27617	0.15390
2636.34761	0.15347
2634.41904	0.15288
2632.49048	0.15229
2630.56191	0.15198
2628.63335	0.15178
2626.70479	0.15147
2624.77622	0.15121
2622.84766	0.15100
2620.91909	0.15066
2618.99053	0.15028
2617.06196	0.15004
2615.13340	0.14988
2613.20483	0.14961
2611.27627	0.14933
2609.34771	0.14932
2607.41914	0.14956
2605.49058	0.14962
2603.56201	0.14943
2601.63345	0.14932
2599.70488	0.14933
2597.77632	0.14933
2595.84775	0.14935
2593.91919	0.14941
2591.99062	0.14945
2590.06206	0.14950
2588.13350	0.14963
2586.20493	0.14977
2584.27637	0.14989
2582.34780	0.15014
2580.41924	0.15052
2578.49067	0.15086
2576.56211	0.15118
2574.63354	0.15152
2572.70498	0.15189
2570.77642	0.15235
2568.84785	0.15277
2566.91929	0.15300
2564.99072	0.15325
2563.06216	0.15374
2561.13359	0.15421
2559.20503	0.15456
2557.27646	0.15500
2555.34790	0.15562
2553.41934	0.15623
2551.49077	0.15674
2549.56221	0.15717
2547.63364	0.15755
2545.70508	0.15807
2543.77651	0.15874
2541.84795	0.15936
2539.91938	0.15989
2537.99082	0.16038
2536.06226	0.16092
2534.13369	0.16158
2532.20513	0.16230
2530.27656	0.16306
2528.34800	0.16383
2526.41943	0.16459
2524.49087	0.16523
2522.56230	0.16586
2520.63374	0.16663
2518.70518	0.16745
2516.77661	0.16812
2514.84805	0.16877
2512.91948	0.16958
2510.99092	0.17045
2509.06235	0.17127
2507.13379	0.17198
2505.20522	0.17265
2503.27666	0.17349
2501.34810	0.17449
2499.41953	0.17552
2497.49097	0.17643
2495.56240	0.17714
2493.63384	0.17781
2491.70527	0.17865
2489.77671	0.17955
2487.84814	0.18040
2485.91958	0.18136
2483.99102	0.18236
2482.06245	0.18316
2480.13389	0.18385
2478.20532	0.18474
2476.27676	0.18568
2474.34819	0.18653
2472.41963	0.18737
2470.49106	0.18821
2468.56250	0.18906
2466.63394	0.18993
2464.70537	0.19088
2462.77681	0.19189
2460.84824	0.19284
2458.91968	0.19363
2456.99111	0.19450
2455.06255	0.19558
2453.13398	0.19668
2451.20542	0.19769
2449.27686	0.19870
2447.34829	0.19969
2445.41973	0.20059
2443.49116	0.20146
2441.56260	0.20240
2439.63403	0.20344
2437.70547	0.20460
2435.77690	0.20573
2433.84834	0.20672
2431.91978	0.20769
2429.99121	0.20875
2428.06265	0.20992
2426.13408	0.21110
2424.20552	0.21219
2422.27695	0.21324
2420.34839	0.21428
2418.41982	0.21533
2416.49126	0.21639
2414.56270	0.21749
2412.63413	0.21864
2410.70557	0.21982
2408.77700	0.22093
2406.84844	0.22192
2404.91987	0.22300
2402.99131	0.22433
2401.06274	0.22570
2399.13418	0.22690
2397.20562	0.22799
2395.27705	0.22920
2393.34849	0.23050
2391.41992	0.23186
2389.49136	0.23333
2387.56279	0.23489
2385.63423	0.23679
2383.70566	0.23941
2381.77710	0.24276
2379.84854	0.24664
2377.91997	0.25090
2375.99141	0.25535
2374.06284	0.26008
2372.13428	0.26550
2370.20571	0.27168
2368.27715	0.27812
2366.34858	0.28375
2364.42002	0.28757
2362.49146	0.29050
2360.56289	0.29333
2358.63433	0.29483
2356.70576	0.29453
2354.77720	0.29327
2352.84863	0.29103
2350.92007	0.28752
2348.99150	0.28506
2347.06294	0.28577
2345.13437	0.29015
2343.20581	0.29623
2341.27725	0.30005
2339.34868	0.30127
2337.42012	0.30225
2335.49155	0.30354
2333.56299	0.30411
2331.63442	0.30452
2329.70586	0.30562
2327.77729	0.30702
2325.84873	0.30780
2323.92017	0.30769
2321.99160	0.30713
2320.06304	0.30657
2318.13447	0.30630
2316.20591	0.30623
2314.27734	0.30643
2312.34878	0.30715
2310.42021	0.30814
2308.49165	0.30878
2306.56309	0.30912
2304.63452	0.30951
2302.70596	0.31022
2300.77739	0.31132
2298.84883	0.31259
2296.92026	0.31384
2294.99170	0.31507
2293.06313	0.31632
2291.13457	0.31754
2289.20601	0.31875
2287.27744	0.32001
2285.34888	0.32140
2283.42031	0.32297
2281.49175	0.32485
2279.56318	0.32702
2277.63462	0.32930
2275.70605	0.33158
2273.77749	0.33372
2271.84893	0.33572
2269.92036	0.33769
2267.99180	0.33960
2266.06323	0.34159
2264.13467	0.34363
2262.20610	0.34558
2260.27754	0.34756
2258.34897	0.34968
2256.42041	0.35185
2254.49185	0.35398
2252.56328	0.35600
2250.63472	0.35795
2248.70615	0.36000
2246.77759	0.36215
2244.84902	0.36429
2242.92046	0.36647
2240.99189	0.36868
2239.06333	0.37084
2237.13477	0.37302
2235.20620	0.37522
2233.27764	0.37739
2231.34907	0.37953
2229.42051	0.38170
2227.49194	0.38390
2225.56338	0.38608
2223.63481	0.38821
2221.70625	0.39045
2219.77769	0.39279
2217.84912	0.39499
2215.92056	0.39709
2213.99199	0.39922
2212.06343	0.40138
2210.13486	0.40354
2208.20630	0.40569
2206.27773	0.40781
2204.34917	0.40986
2202.42061	0.41187
2200.49204	0.41382
2198.56348	0.41574
2196.63491	0.41777
2194.70635	0.41986
2192.77778	0.42184
2190.84922	0.42373
2188.92065	0.42555
2186.99209	0.42736
2185.06353	0.42918
2183.13496	0.43098
2181.20640	0.43274
2179.27783	0.43440
2177.34927	0.43598
2175.42070	0.43752
2173.49214	0.43903
2171.56357	0.44047
2169.63501	0.44181
2167.70645	0.44311
2165.77788	0.44445
2163.84932	0.44577
2161.92075	0.44697
2159.99219	0.44803
2158.06362	0.44904
2156.13506	0.44999
2154.20649	0.45084
2152.27793	0.45168
2150.34937	0.45247
2148.42080	0.45312
2146.49224	0.45362
2144.56367	0.45402
2142.63511	0.45440
2140.70654	0.45476
2138.77798	0.45504
2136.84941	0.45521
2134.92085	0.45532
2132.99229	0.45543
2131.06372	0.45549
2129.13516	0.45537
2127.20659	0.45507
2125.27803	0.45474
2123.34946	0.45432
2121.42090	0.45384
2119.49233	0.45334
2117.56377	0.45275
2115.63521	0.45199
2113.70664	0.45112
2111.77808	0.45020
2109.84951	0.44915
2107.92095	0.44805
2105.99238	0.44695
2104.06382	0.44575
2102.13525	0.44443
2100.20669	0.44313
2098.27812	0.44184
2096.34956	0.44045
2094.42100	0.43895
2092.49243	0.43735
2090.56387	0.43563
2088.63530	0.43383
2086.70674	0.43208
2084.77817	0.43029
2082.84961	0.42837
2080.92104	0.42636
2078.99248	0.42441
2077.06392	0.42245
2075.13535	0.42029
2073.20679	0.41800
2071.27822	0.41569
2069.34966	0.41342
2067.42109	0.41115
2065.49253	0.40886
2063.56396	0.40648
2061.63540	0.40397
2059.70684	0.40148
2057.77827	0.39904
2055.84971	0.39663
2053.92114	0.39416
2051.99258	0.39153
2050.06401	0.38878
2048.13545	0.38615
2046.20688	0.38366
2044.27832	0.38114
2042.34976	0.37847
2040.42119	0.37577
2038.49263	0.37308
2036.56406	0.37031
2034.63550	0.36743
2032.70693	0.36448
2030.77837	0.36161
2028.84980	0.35890
2026.92124	0.35627
2024.99268	0.35358
2023.06411	0.35090
2021.13555	0.34818
2019.20698	0.34542
2017.27842	0.34267
2015.34985	0.33987
2013.42129	0.33700
2011.49272	0.33412
2009.56416	0.33135
2007.63560	0.32873
2005.70703	0.32615
2003.77847	0.32352
2001.84990	0.32085
1999.92134	0.31819
1997.99277	0.31561
1996.06421	0.31312
1994.13564	0.31063
1992.20708	0.30814
1990.27852	0.30562
1988.34995	0.30310
1986.42139	0.30067
1984.49282	0.29833
1982.56426	0.29596
1980.63569	0.29350
1978.70713	0.29117
1976.77856	0.28900
1974.85000	0.28687
1972.92144	0.28467
1970.99287	0.28258
1969.06431	0.28065
1967.13574	0.27871
1965.20718	0.27666
1963.27861	0.27464
1961.35005	0.27265
1959.42148	0.27065
1957.49292	0.26876
1955.56436	0.26700
1953.63579	0.26528
1951.70723	0.26354
1949.77866	0.26182
1947.85010	0.26025
1945.92153	0.25883
1943.99297	0.25745
1942.06440	0.25607
1940.13584	0.25459
1938.20728	0.25306
1936.27871	0.25160
1934.35015	0.25025
1932.42158	0.24905
1930.49302	0.24788
1928.56445	0.24670
1926.63589	0.24556
1924.70732	0.24464
1922.77876	0.24387
1920.85020	0.24298
1918.92163	0.24205
1916.99307	0.24114
1915.06450	0.24008
1913.13594	0.23900
1911.20737	0.23822
1909.27881	0.23766
1907.35024	0.23704
1905.42168	0.23635
1903.49312	0.23576
1901.56455	0.23520
1899.63599	0.23462
1897.70742	0.23419
1895.77886	0.23391
1893.85029	0.23363
1891.92173	0.23333
1889.99316	0.23320
1888.06460	0.23299
1886.13604	0.23257
1884.20747	0.23224
1882.27891	0.23208
1880.35034	0.23197
1878.42178	0.23181
1876.49321	0.23171
1874.56465	0.23167
1872.63608	0.23179
1870.70752	0.23212
1868.77896	0.23274
1866.85039	0.23310
1864.92183	0.23296
1862.99326	0.23289
1861.06470	0.23308
1859.13613	0.23347
1857.20757	0.23384
1855.27900	0.23424
1853.35044	0.23472
1851.42187	0.23527
1849.49331	0.23585
1847.56475	0.23652
1845.63618	0.23742
1843.70762	0.23843
1841.77905	0.23907
1839.85049	0.23939
1837.92192	0.24010
1835.99336	0.24111
1834.06479	0.24205
1832.13623	0.24292
1830.20767	0.24430
1828.27910	0.24592
1826.35054	0.24714
1824.42197	0.24846
1822.49341	0.24970
1820.56484	0.25088
1818.63628	0.25222
1816.70771	0.25374
1814.77915	0.25530
1812.85059	0.25708
1810.92202	0.25921
1808.99346	0.26136
1807.06489	0.26323
1805.13633	0.26499
1803.20776	0.26710
1801.27920	0.26958
1799.35063	0.27238
1797.42207	0.27503
1795.49351	0.27753
1793.56494	0.28027
1791.63638	0.28389
1789.70781	0.28743
1787.77925	0.28998
1785.85068	0.29296
1783.92212	0.29658
1781.99355	0.30052
1780.06499	0.30477
1778.13643	0.30911
1776.20786	0.31313
1774.27930	0.31743
1772.35073	0.32328
1770.42217	0.32962
1768.49360	0.33491
1766.56504	0.33995
1764.63647	0.34511
1762.70791	0.35081
1760.77935	0.35814
1758.85078	0.36514
1756.92222	0.37221
1754.99365	0.38002
1753.06509	0.38706
1751.13652	0.39517
1749.20796	0.40545
1747.27939	0.41594
1745.35083	0.42519
1743.42227	0.43484
1741.49370	0.44535
1739.56514	0.45766
1737.63657	0.47000
1735.70801	0.48076
1733.77944	0.49708
1731.85088	0.51679
1729.92231	0.53231
1727.99375	0.54804
1726.06519	0.56491
1724.13662	0.58319
1722.20806	0.60291
1720.27949	0.62111
1718.35093	0.64257
1716.42236	0.67472
1714.49380	0.70546
1712.56523	0.73018
1710.63667	0.75415
1708.70811	0.77995
1706.77954	0.80904
1704.85098	0.84391
1702.92241	0.87534
1700.99385	0.90632
1699.06528	0.95261
1697.13672	0.99589
1695.20815	1.04061
1693.27959	1.08390
1691.35103	1.11882
1689.42246	1.15981
1687.49390	1.20365
1685.56533	1.24572
1683.63677	1.31012
1681.70820	1.37711
1679.77964	1.41978
1677.85107	1.46052
1675.92251	1.50792
1673.99395	1.56684
1672.06538	1.61902
1670.13682	1.67078
1668.20825	1.73911
1666.27969	1.79453
1664.35112	1.84186
1662.42256	1.90295
1660.49399	1.97320
1658.56543	2.02792
1656.63687	2.07158
1654.70830	2.11213
1652.77974	2.17506
1650.85117	2.23039
1648.92261	2.24660
1646.99404	2.26776
1645.06548	2.29350
1643.13691	2.31232
1641.20835	2.32166
1639.27979	2.32784
1637.35122	2.32976
1635.42266	2.32648
1633.49409	2.31848
1631.56553	2.30536
1629.63696	2.28871
1627.70840	2.25989
1625.77983	2.22437
1623.85127	2.17875
1621.92271	2.12414
1619.99414	2.07669
1618.06558	2.03056
1616.13701	1.96486
1614.20845	1.89864
1612.27988	1.84851
1610.35132	1.79607
1608.42275	1.73918
1606.49419	1.68304
1604.56562	1.63144
1602.63706	1.58226
1600.70850	1.53447
1598.77993	1.48996
1596.85137	1.44811
1594.92280	1.40787
1592.99424	1.36915
1591.06567	1.33400
1589.13711	1.30179
1587.20854	1.27216
1585.27998	1.24483
1583.35142	1.21952
1581.42285	1.19683
1579.49429	1.17775
1577.56572	1.16074
1575.63716	1.14106
1573.70859	1.12483
1571.78003	1.11446
1569.85146	1.10380
1567.92290	1.09255
1565.99434	1.08494
1564.06577	1.08025
1562.13721	1.07733
1560.20864	1.07659
1558.28008	1.07961
1556.35151	1.08367
1554.42295	1.08618
1552.49438	1.08851
1550.56582	1.08908
1548.63726	1.08706
1546.70869	1.08233
1544.78013	1.07405
1542.85156	1.06191
1540.92300	1.04367
1538.99443	1.01557
1537.06587	0.99479
1535.13730	0.98026
1533.20874	0.96058
1531.28018	0.93917
1529.35161	0.92356
1527.42305	0.90909
1525.49448	0.89443
1523.56592	0.88218
1521.63735	0.87030
1519.70879	0.85819
1517.78022	0.84824
1515.85166	0.83661
1513.92310	0.82406
1511.99453	0.81317
1510.06597	0.80348
1508.13740	0.79378
1506.20884	0.77826
1504.28027	0.76510
1502.35171	0.75808
1500.42314	0.75194
1498.49458	0.74524
1496.56602	0.73727
1494.63745	0.72921
1492.70889	0.72297
1490.78032	0.71757
1488.85176	0.71130
1486.92319	0.70530
1484.99463	0.70053
1483.06606	0.69664
1481.13750	0.69325
1479.20894	0.69056
1477.28037	0.68901
1475.35181	0.68844
1473.42324	0.68838
1471.49468	0.68751
1469.56611	0.68532
1467.63755	0.68286
1465.70898	0.68072
1463.78042	0.67915
1461.85186	0.67836
1459.92329	0.67840
1457.99473	0.67921
1456.06616	0.67928
1454.13760	0.67716
1452.20903	0.67460
1450.28047	0.67205
1448.35190	0.66954
1446.42334	0.66704
1444.49478	0.66470
1442.56621	0.66247
1440.63765	0.66011
1438.70908	0.65755
1436.78052	0.65409
1434.85195	0.65007
1432.92339	0.64707
1430.99482	0.64516
1429.06626	0.64407
1427.13770	0.64374
1425.20913	0.64393
1423.28057	0.64439
1421.35200	0.64468
1419.42344	0.64486
1417.49487	0.64488
1415.56631	0.64422
1413.63774	0.64363
1411.70918	0.64389
1409.78062	0.64495
1407.85205	0.64636
1405.92349	0.64809
1403.99492	0.64987
1402.06636	0.65076
1400.13779	0.65056
1398.20923	0.64926
1396.28066	0.64683
1394.35210	0.64320
1392.42354	0.63886
1390.49497	0.63469
1388.56641	0.63046
1386.63784	0.62560
1384.70928	0.62046
1382.78071	0.61560
1380.85215	0.61105
1378.92358	0.60700
1376.99502	0.60371
1375.06646	0.60130
1373.13789	0.59967
1371.20933	0.59855
1369.28076	0.59747
1367.35220	0.59606
1365.42363	0.59449
1363.49507	0.59305
1361.56650	0.59166
1359.63794	0.59015
1357.70937	0.58886
1355.78081	0.58779
1353.85225	0.58681
1351.92368	0.58603
1349.99512	0.58545
1348.06655	0.58480
1346.13799	0.58400
1344.20942	0.58329
1342.28086	0.58285
1340.35229	0.58259
1338.42373	0.58212
1336.49517	0.58146
1334.56660	0.58100
1332.63804	0.58084
1330.70947	0.58101
1328.78091	0.58153
1326.85234	0.58233
1324.92378	0.58312
1322.99521	0.58374
1321.06665	0.58424
1319.13809	0.58473
1317.20952	0.58499
1315.28096	0.58492
1313.35239	0.58455
1311.42383	0.58396
1309.49526	0.58349
1307.56670	0.58328
1305.63813	0.58309
1303.70957	0.58274
1301.78101	0.58226
1299.85244	0.58161
1297.92388	0.58075
1295.99531	0.57965
1294.06675	0.57834
1292.13818	0.57710
1290.20962	0.57602
1288.28105	0.57489
1286.35249	0.57362
1284.42393	0.57228
1282.49536	0.57100
1280.56680	0.56984
1278.63823	0.56863
1276.70967	0.56725
1274.78110	0.56593
1272.85254	0.56495
1270.92397	0.56411
1268.99541	0.56310
1267.06685	0.56209
1265.13828	0.56135
1263.20972	0.56072
1261.28115	0.55999
1259.35259	0.55926
1257.42402	0.55867
1255.49546	0.55818
1253.56689	0.55796
1251.63833	0.55812
1249.70977	0.55842
1247.78120	0.55855
1245.85264	0.55843
1243.92407	0.55792
1241.99551	0.55702
1240.06694	0.55579
1238.13838	0.55420
1236.20981	0.55230
1234.28125	0.55023
1232.35269	0.54814
1230.42412	0.54605
1228.49556	0.54394
1226.56699	0.54192
1224.63843	0.54016
1222.70986	0.53869
1220.78130	0.53742
1218.85273	0.53629
1216.92417	0.53511
1214.99561	0.53384
1213.06704	0.53276
1211.13848	0.53192
1209.20991	0.53117
1207.28135	0.53051
1205.35278	0.52973
1203.42422	0.52862
1201.49565	0.52752
1199.56709	0.52676
1197.63853	0.52621
1195.70996	0.52561
1193.78140	0.52509
1191.85283	0.52471
1189.92427	0.52439
1187.99570	0.52410
1186.06714	0.52395
1184.13857	0.52406
1182.21001	0.52443
1180.28145	0.52510
1178.35288	0.52619
1176.42432	0.52752
1174.49575	0.52861
1172.56719	0.52909
1170.63862	0.52900
1168.71006	0.52863
1166.78149	0.52814
1164.85293	0.52760
1162.92437	0.52699
1160.99580	0.52617
1159.06724	0.52521
1157.13867	0.52418
1155.21011	0.52299
1153.28154	0.52156
1151.35298	0.51992
1149.42441	0.51793
1147.49585	0.51551
1145.56729	0.51297
1143.63872	0.51058
1141.71016	0.50839
1139.78159	0.50647
1137.85303	0.50483
1135.92446	0.50350
1133.99590	0.50237
1132.06733	0.50132
1130.13877	0.50039
1128.21021	0.49946
1126.28164	0.49834
1124.35308	0.49708
1122.42451	0.49590
1120.49595	0.49516
1118.56738	0.49498
1116.63882	0.49505
1114.71025	0.49511
1112.78169	0.49516
1110.85312	0.49534
1108.92456	0.49583
1106.99600	0.49665
1105.06743	0.49778
1103.13887	0.49920
1101.21030	0.50099
1099.28174	0.50332
1097.35317	0.50619
1095.42461	0.50923
1093.49604	0.51248
1091.56748	0.51629
1089.63892	0.52078
1087.71035	0.52592
1085.78179	0.53166
1083.85322	0.53775
1081.92466	0.54364
1079.99609	0.54861
1078.06753	0.55198
1076.13896	0.55304
1074.21040	0.55136
1072.28184	0.54714
1070.35327	0.54117
1068.42471	0.53444
1066.49614	0.52772
1064.56758	0.52140
1062.63901	0.51541
1060.71045	0.50981
1058.78188	0.50512
1056.85332	0.50133
1054.92476	0.49778
1052.99619	0.49433
1051.06763	0.49127
1049.13906	0.48871
1047.21050	0.48647
1045.28193	0.48451
1043.35337	0.48280
1041.42480	0.48121
1039.49624	0.47989
1037.56768	0.47901
1035.63911	0.47836
1033.71055	0.47790
1031.78198	0.47778
1029.85342	0.47797
1027.92485	0.47816
1025.99629	0.47835
1024.06772	0.47876
1022.13916	0.47924
1020.21060	0.47972
1018.28203	0.48054
1016.35347	0.48160
1014.42490	0.48265
1012.49634	0.48383
1010.56777	0.48521
1008.63921	0.48678
1006.71064	0.48864
1004.78208	0.49069
1002.85352	0.49288
1000.92495	0.49548
998.99639	0.49871
997.06782	0.50250
995.13926	0.50671
993.21069	0.51092
991.28213	0.51454
989.35356	0.51722
987.42500	0.51885
985.49644	0.51973
983.56787	0.52043
981.63931	0.52148
979.71074	0.52300
977.78218	0.52489
975.85361	0.52709
973.92505	0.52975
971.99648	0.53302
970.06792	0.53659
968.13936	0.54029
966.21079	0.54433
964.28223	0.54870
962.35366	0.55348
960.42510	0.55874
958.49653	0.56428
956.56797	0.57013
954.63940	0.57653
952.71084	0.58309
950.78228	0.58919
948.85371	0.59511
946.92515	0.60147
944.99658	0.60790
943.06802	0.61395
941.13945	0.62024
939.21089	0.62684
937.28232	0.63276
935.35376	0.63811
933.42520	0.64367
931.49663	0.64929
929.56807	0.65456
927.63950	0.65992
925.71094	0.66607
923.78237	0.67259
921.85381	0.67899
919.92524	0.68572
917.99668	0.69298
916.06812	0.70044
914.13955	0.70782
912.21099	0.71517
910.28242	0.72322
908.35386	0.73226
906.42529	0.74143
904.49673	0.74994
902.56816	0.75801
900.63960	0.76647
898.71104	0.77612
896.78247	0.78709
894.85391	0.79857
892.92534	0.80973
890.99678	0.82059
889.06821	0.83120
887.13965	0.84153
885.21108	0.85251
883.28252	0.86440
881.35396	0.87572
879.42539	0.88605
877.49683	0.89702
875.56826	0.90860
873.63970	0.91946
871.71113	0.93065
869.78257	0.94295
867.85400	0.95493
865.92544	0.96581
863.99687	0.97686
862.06831	0.98966
860.13975	1.00274
858.21118	1.01398
856.28262	1.02455
854.35405	1.03653
852.42549	1.04995
850.49692	1.06275
848.56836	1.07320
846.63979	1.08298
844.71123	1.09342
842.78267	1.10392
840.85410	1.11581
838.92554	1.12784
836.99697	1.13845
835.06841	1.14909
833.13984	1.16005
831.21128	1.17103
829.28271	1.18213
827.35415	1.19578
825.42559	1.21309
823.49702	1.23015
821.56846	1.24416
819.63989	1.26026
817.71133	1.28051
815.78276	1.29244
813.85420	1.29174
811.92563	1.29456
809.99707	1.30771
808.06851	1.32072
806.13994	1.32966
804.21138	1.34419
802.28281	1.36685
800.35425	1.37303
798.42568	1.37020
796.49712	1.39075
794.56855	1.40750
792.63999	1.41156
790.71143	1.44371
788.78286	1.48871
786.85430	1.49202
784.92573	1.47496
782.99717	1.47381
781.06860	1.46571
779.14004	1.45384
777.21147	1.46404
775.28291	1.47214
773.35435	1.42114
771.42578	1.38640
769.49722	1.42837
767.56865	1.51345
765.64009	1.53288
763.71152	1.44478
761.78296	1.37585
759.85439	1.37820
757.92583	1.33408
755.99727	1.23090
754.06870	1.21920
752.14014	1.32917
750.21157	1.48412
748.28301	1.33704
746.35444	1.12727
744.42588	1.06346
742.49731	1.07130
740.56875	1.02771
738.64019	0.95439
736.71162	0.87347
734.78306	0.79094
732.85449	0.71298
730.92593	0.62110
728.99736	0.59806
727.06880	0.75906
725.14023	0.78793
723.21167	0.42438
721.28311	0.22236
719.35454	0.16210
717.42598	0.20201
715.49741	0.20295
713.56885	0.11311
711.64028	0.04232
709.71172	-0.00085
707.78315	-0.02665
705.85459	-0.00931
703.92603	0.06268
701.99746	0.12878
700.06890	0.20994
698.14033	0.38706
696.21177	0.89175
694.28320	1.09080
692.35464	0.46174
690.42607	0.26649
688.49751	0.24484
686.56895	0.28724
684.64038	0.32936
682.71182	0.40521
680.78325	0.44724
678.85469	0.39062
676.92612	0.29293
674.99756	0.21058
673.06899	0.20687
671.14043	0.25979
669.21187	0.28508
667.28330	0.24014
665.35474	0.16601
663.42617	0.15679
661.49761	0.20629
659.56904	0.26574
657.64048	0.30013
655.71191	0.29391
653.78335	0.27705
651.85479	0.29512
649.92622	0.27109
647.99766	0.17644
646.06909	0.11176
644.14053	0.19392
642.21196	0.33292
640.28340	0.33832
638.35483	0.22768
636.42627	0.17734
634.49771	0.26393
632.56914	0.41994
630.64058	0.36342
628.71201	0.24673
626.78345	0.24832
624.85488	0.27187
622.92632	0.25784
620.99775	0.25829
619.06919	0.26197
617.14062	0.27243
615.21206	0.32684
613.28350	0.41830
611.35493	0.44752
609.42637	0.26623
607.49780	0.14300
605.56924	0.16168
603.64067	0.19955
601.71211	0.20062
599.78354	0.25273
597.85498	0.28031
595.92642	0.23189
593.99785	0.27134
592.06929	0.37720
590.14072	0.34018
588.21216	0.23302
586.28359	0.21244
584.35503	0.25274
582.42646	0.28262
580.49790	0.30712
578.56934	0.35256
576.64077	0.36696
574.71221	0.36046
572.78364	0.33945
570.85508	0.25538
568.92651	0.18847
566.99795	0.20798
565.06938	0.26428
563.14082	0.26773
561.21226	0.17630
559.28369	0.12477
557.35513	0.13970
555.42656	0.12484
553.49800	0.07332
551.56943	0.05984
549.64087	0.13469
547.71230	0.23667
545.78374	0.30042
543.85518	0.29220
541.92661	0.30326
539.99805	0.36625
538.06948	0.35214
536.14092	0.28638
534.21235	0.26261
532.28379	0.24740
530.35522	0.24258
528.42666	0.25925
526.49810	0.25458
524.56953	0.21693
522.64097	0.20120
520.71240	0.21689
518.78384	0.24989
516.85527	0.26915
514.92671	0.21220
512.99814	0.12237
511.06958	0.07860
509.14102	0.10357
507.21245	0.18312
505.28389	0.24686
503.35532	0.22027
501.42676	0.16781
499.49819	0.15471
