3997.91411	0.06990
3995.98555	0.07020
3994.05698	0.07064
3992.12842	0.07105
3990.19985	0.07132
3988.27129	0.07148
3986.34272	0.07149
3984.41416	0.07175
3982.48560	0.07240
3980.55703	0.07283
3978.62847	0.07280
3976.69990	0.07276
3974.77134	0.07299
3972.84277	0.07350
3970.91421	0.07405
3968.98564	0.07432
3967.05708	0.07408
3965.12852	0.07340
3963.19995	0.07339
3961.27139	0.07440
3959.34282	0.07501
3957.41426	0.07461
3955.48569	0.07416
3953.55713	0.07438
3951.62856	0.07513
3949.70000	0.07599
3947.77144	0.07642
3945.84287	0.07640
3943.91431	0.07664
3941.98574	0.07677
3940.05718	0.07579
3938.12861	0.07455
3936.20005	0.07413
3934.27148	0.07455
3932.34292	0.07581
3930.41436	0.07714
3928.48579	0.07694
3926.55723	0.07614
3924.62866	0.07654
3922.70010	0.07698
3920.77153	0.07653
3918.84297	0.07656
3916.91440	0.07713
3914.98584	0.07655
3913.05728	0.07476
3911.12871	0.07327
3909.20015	0.07286
3907.27158	0.07414
3905.34302	0.07726
3903.41445	0.08068
3901.48589	0.08238
3899.55732	0.08230
3897.62876	0.08013
3895.70020	0.07698
3893.77163	0.07612
3891.84307	0.07809
3889.91450	0.07924
3887.98594	0.07804
3886.05737	0.07798
3884.12881	0.07934
3882.20024	0.07989
3880.27168	0.08009
3878.34312	0.07928
3876.41455	0.07799
3874.48599	0.07894
3872.55742	0.08157
3870.62886	0.08375
3868.70029	0.08436
3866.77173	0.08323
3864.84316	0.08321
3862.91460	0.08443
3860.98604	0.08367
3859.05747	0.08202
3857.12891	0.08250
3855.20034	0.08592
3853.27178	0.09183
3851.34321	0.09360
3849.41465	0.08836
3847.48608	0.08382
3845.55752	0.08249
3843.62896	0.08414
3841.70039	0.08764
3839.77183	0.09180
3837.84326	0.09498
3835.91470	0.09460
3833.98613	0.09212
3832.05757	0.09029
3830.12900	0.08937
3828.20044	0.08945
3826.27187	0.09061
3824.34331	0.09218
3822.41475	0.09477
3820.48618	0.09906
3818.55762	0.10081
3816.62905	0.09993
3814.70049	0.09855
3812.77192	0.09574
3810.84336	0.09392
3808.91479	0.09526
3806.98623	0.09940
3805.05767	0.10302
3803.12910	0.10519
3801.20054	0.10827
3799.27197	0.10960
3797.34341	0.10841
3795.41484	0.10744
3793.48628	0.10614
3791.55771	0.10526
3789.62915	0.10589
3787.70059	0.10752
3785.77202	0.10994
3783.84346	0.11253
3781.91489	0.11432
3779.98633	0.11637
3778.05776	0.11840
3776.12920	0.11841
3774.20063	0.11815
3772.27207	0.11995
3770.34351	0.12394
3768.41494	0.12796
3766.48638	0.12988
3764.55781	0.13105
3762.62925	0.13236
3760.70068	0.13473
3758.77212	0.13871
3756.84355	0.14204
3754.91499	0.14428
3752.98643	0.14818
3751.05786	0.15553
3749.12930	0.16298
3747.20073	0.16553
3745.27217	0.16736
3743.34360	0.17149
3741.41504	0.17515
3739.48647	0.17835
3737.55791	0.18426
3735.62935	0.19434
3733.70078	0.20449
3731.77222	0.20922
3729.84365	0.21180
3727.91509	0.21562
3725.98652	0.22169
3724.05796	0.22853
3722.12939	0.23350
3720.20083	0.23651
3718.27227	0.23866
3716.34370	0.24149
3714.41514	0.24721
3712.48657	0.25924
3710.55801	0.27852
3708.62944	0.29537
3706.70088	0.30524
3704.77231	0.31492
3702.84375	0.32829
3700.91519	0.34580
3698.98662	0.36390
3697.05806	0.38051
3695.12949	0.39821
3693.20093	0.41765
3691.27236	0.43988
3689.34380	0.46868
3687.41523	0.50173
3685.48667	0.52880
3683.55811	0.55221
3681.62954	0.57892
3679.70098	0.61108
3677.77241	0.64676
3675.84385	0.68939
3673.91528	0.74318
3671.98672	0.78447
3670.05815	0.82170
3668.12959	0.87330
3666.20103	0.91895
3664.27246	0.95682
3662.34390	0.99886
3660.41533	1.04585
3658.48677	1.09344
3656.55820	1.14450
3654.62964	1.20028
3652.70107	1.24686
3650.77251	1.28943
3648.84395	1.34867
3646.91538	1.41605
3644.98682	1.46171
3643.05825	1.49760
3641.12969	1.53679
3639.20112	1.58126
3637.27256	1.62663
3635.34399	1.67154
3633.41543	1.71730
3631.48687	1.76056
3629.55830	1.80447
3627.62974	1.86031
3625.70117	1.90924
3623.77261	1.94019
3621.84404	1.97059
3619.91548	2.00776
3617.98691	2.05293
3616.05835	2.09445
3614.12979	2.12836
3612.20122	2.16533
3610.27266	2.20457
3608.34409	2.24567
3606.41553	2.28869
3604.48696	2.32684
3602.55840	2.36145
3600.62983	2.40084
3598.70127	2.44347
3596.77271	2.48319
3594.84414	2.52274
3592.91558	2.56379
3590.98701	2.60225
3589.05845	2.63878
3587.12988	2.68204
3585.20132	2.72629
3583.27275	2.76239
3581.34419	2.79804
3579.41562	2.83780
3577.48706	2.87944
3575.55850	2.92179
3573.62993	2.96572
3571.70137	3.00812
3569.77280	3.04948
3567.84424	3.09551
3565.91567	3.14949
3563.98711	3.19810
3562.05854	3.23724
3560.12998	3.27576
3558.20142	3.31718
3556.27285	3.36278
3554.34429	3.40878
3552.41572	3.45461
3550.48716	3.50139
3548.55859	3.54820
3546.63003	3.59573
3544.70146	3.64370
3542.77290	3.69061
3540.84434	3.73758
3538.91577	3.78269
3536.98721	3.82577
3535.05864	3.87457
3533.13008	3.92740
3531.20151	3.97636
3529.27295	4.02132
3527.34438	4.06715
3525.41582	4.11318
3523.48726	4.15856
3521.55869	4.20772
3519.63013	4.25733
3517.70156	4.30444
3515.77300	4.35116
3513.84443	4.39714
3511.91587	4.44157
3509.98730	4.48805
3508.05874	4.53975
3506.13018	4.59340
3504.20161	4.64452
3502.27305	4.69450
3500.34448	4.74345
3498.41592	4.79086
3496.48735	4.84017
3494.55879	4.88912
3492.63022	4.93464
3490.70166	4.98132
3488.77310	5.03387
3486.84453	5.08952
3484.91597	5.14146
3482.98740	5.18395
3481.05884	5.22244
3479.13027	5.26706
3477.20171	5.31584
3475.27314	5.36392
3473.34458	5.41190
3471.41602	5.46049
3469.48745	5.50817
3467.55889	5.55730
3465.63032	5.60710
3463.70176	5.65615
3461.77319	5.70579
3459.84463	5.75819
3457.91606	5.82233
3455.98750	5.89546
3454.05894	5.95423
3452.13037	5.99197
3450.20181	6.02802
3448.27324	6.07672
3446.34468	6.13568
3444.41611	6.19070
3442.48755	6.24406
3440.55898	6.29176
3438.63042	6.32446
3436.70186	6.36541
3434.77329	6.42264
3432.84473	6.47223
3430.91616	6.51624
3428.98760	6.57165
3427.05903	6.63302
3425.13047	6.70205
3423.20190	6.76608
3421.27334	6.80658
3419.34478	6.83161
3417.41621	6.86384
3415.48765	6.90920
3413.55908	6.95745
3411.63052	7.02228
3409.70195	7.09856
3407.77339	7.15744
3405.84482	7.19717
3403.91626	7.22427
3401.98770	7.21842
3400.05913	7.22583
3398.13057	7.29689
3396.20200	7.38568
3394.27344	7.45115
3392.34487	7.48714
3390.41631	7.50061
3388.48774	7.49379
3386.55918	7.50024
3384.63062	7.54096
3382.70205	7.60399
3380.77349	7.67404
3378.84492	7.74257
3376.91636	7.79318
3374.98779	7.77701
3373.05923	7.76072
3371.13066	7.79516
3369.20210	7.81497
3367.27354	7.80595
3365.34497	7.83482
3363.41641	7.87735
3361.48784	7.88292
3359.55928	7.90666
3357.63071	7.94582
3355.70215	7.98338
3353.77358	8.02429
3351.84502	8.03935
3349.91646	8.03862
3347.98789	8.08567
3346.05933	8.16732
3344.13076	8.24976
3342.20220	8.30441
3340.27363	8.25481
3338.34507	8.14366
3336.41650	8.04686
3334.48794	8.03422
3332.55937	8.09995
3330.63081	8.16334
3328.70225	8.18651
3326.77368	8.19924
3324.84512	8.24364
3322.91655	8.28947
3320.98799	8.32081
3319.05942	8.34710
3317.13086	8.39330
3315.20229	8.42166
3313.27373	8.35128
3311.34517	8.24559
3309.41660	8.22541
3307.48804	8.25726
3305.55947	8.25650
3303.63091	8.24203
3301.70234	8.25590
3299.77378	8.35607
3297.84521	8.42951
3295.91665	8.34851
3293.98809	8.26645
3292.05952	8.29100
3290.13096	8.35271
3288.20239	8.35654
3286.27383	8.32775
3284.34526	8.36150
3282.41670	8.43217
3280.48813	8.38385
3278.55957	8.30949
3276.63101	8.31781
3274.70244	8.31940
3272.77388	8.26069
3270.84531	8.18362
3268.91675	8.18145
3266.98818	8.22615
3265.05962	8.27718
3263.13105	8.38656
3261.20249	8.48210
3259.27393	8.44058
3257.34536	8.32378
3255.41680	8.27798
3253.48823	8.35580
3251.55967	8.42930
3249.63110	8.39102
3247.70254	8.36965
3245.77397	8.43771
3243.84541	8.50942
3241.91685	8.49970
3239.98828	8.45515
3238.05972	8.45065
3236.13115	8.43141
3234.20259	8.36149
3232.27402	8.33445
3230.34546	8.37104
3228.41689	8.37717
3226.48833	8.29416
3224.55977	8.18961
3222.63120	8.15581
3220.70264	8.16041
3218.77407	8.15740
3216.84551	8.14937
3214.91694	8.12959
3212.98838	8.11328
3211.05981	8.11911
3209.13125	8.13764
3207.20269	8.12031
3205.27412	8.06911
3203.34556	8.02329
3201.41699	7.97417
3199.48843	7.91373
3197.55986	7.85793
3195.63130	7.82688
3193.70273	7.81723
3191.77417	7.80377
3189.84561	7.77101
3187.91704	7.71540
3185.98848	7.61686
3184.05991	7.48191
3182.13135	7.39380
3180.20278	7.37597
3178.27422	7.34129
3176.34565	7.27781
3174.41709	7.22991
3172.48853	7.15830
3170.55996	7.06190
3168.63140	7.01610
3166.70283	7.01854
3164.77427	6.99426
3162.84570	6.91796
3160.91714	6.81796
3158.98857	6.71867
3157.06001	6.62570
3155.13145	6.53754
3153.20288	6.46285
3151.27432	6.41441
3149.34575	6.36924
3147.41719	6.30399
3145.48862	6.23393
3143.56006	6.16429
3141.63149	6.08894
3139.70293	6.00396
3137.77437	5.91863
3135.84580	5.84427
3133.91724	5.77287
3131.98867	5.70057
3130.06011	5.63108
3128.13154	5.56148
3126.20298	5.48758
3124.27441	5.41446
3122.34585	5.34652
3120.41729	5.27891
3118.48872	5.20767
3116.56016	5.13171
3114.63159	5.05140
3112.70303	4.97186
3110.77446	4.89540
3108.84590	4.82166
3106.91733	4.75514
3104.98877	4.69320
3103.06021	4.62567
3101.13164	4.55085
3099.20308	4.47774
3097.27451	4.41031
3095.34595	4.34051
3093.41738	4.26778
3091.48882	4.19977
3089.56025	4.13471
3087.63169	4.06845
3085.70312	4.00128
3083.77456	3.93443
3081.84600	3.87018
3079.91743	3.80787
3077.98887	3.74557
3076.06030	3.68349
3074.13174	3.62220
3072.20317	3.56212
3070.27461	3.50292
3068.34604	3.44470
3066.41748	3.38762
3064.48892	3.32994
3062.56035	3.27134
3060.63179	3.21411
3058.70322	3.15844
3056.77466	3.10334
3054.84609	3.04929
3052.91753	2.99634
3050.98896	2.94380
3049.06040	2.89135
3047.13184	2.83944
3045.20327	2.78900
3043.27471	2.74056
3041.34614	2.69330
3039.41758	2.64643
3037.48901	2.59977
3035.56045	2.55273
3033.63188	2.50548
3031.70332	2.45938
3029.77476	2.41524
3027.84619	2.37237
3025.91763	2.32968
3023.98906	2.28717
3022.06050	2.24538
3020.13193	2.20432
3018.20337	2.16382
3016.27480	2.12416
3014.34624	2.08542
3012.41768	2.04716
3010.48911	2.00905
3008.56055	1.97123
3006.63198	1.93430
3004.70342	1.89852
3002.77485	1.86353
3000.84629	1.82913
2998.91772	1.79489
2996.98916	1.76068
2995.06060	1.72733
2993.13203	1.69526
2991.20347	1.66377
2989.27490	1.63215
2987.34634	1.60060
2985.41777	1.56968
2983.48921	1.53976
2981.56064	1.51083
2979.63208	1.48238
2977.70352	1.45395
2975.77495	1.42558
2973.84639	1.39763
2971.91782	1.37037
2969.98926	1.34361
2968.06069	1.31705
2966.13213	1.29111
2964.20356	1.26619
2962.27500	1.24171
2960.34644	1.21750
2958.41787	1.19398
2956.48931	1.17114
2954.56074	1.14884
2952.63218	1.12663
2950.70361	1.10423
2948.77505	1.08259
2946.84648	1.06211
2944.91792	1.04156
2942.98936	1.02051
2941.06079	0.99978
2939.13223	0.97966
2937.20366	0.95994
2935.27510	0.94056
2933.34653	0.92199
2931.41797	0.90444
2929.48940	0.88727
2927.56084	0.87021
2925.63228	0.85343
2923.70371	0.83701
2921.77515	0.82134
2919.84658	0.80655
2917.91802	0.79204
2915.98945	0.77745
2914.06089	0.76282
2912.13232	0.74822
2910.20376	0.73395
2908.27520	0.72011
2906.34663	0.70660
2904.41807	0.69361
2902.48950	0.68135
2900.56094	0.66947
2898.63237	0.65751
2896.70381	0.64546
2894.77524	0.63368
2892.84668	0.62239
2890.91812	0.61125
2888.98955	0.60003
2887.06099	0.58912
2885.13242	0.57851
2883.20386	0.56790
2881.27529	0.55756
2879.34673	0.54769
2877.41816	0.53800
2875.48960	0.52837
2873.56104	0.51888
2871.63247	0.50955
2869.70391	0.50036
2867.77534	0.49132
2865.84678	0.48231
2863.91821	0.47301
2861.98965	0.46380
2860.06108	0.45524
2858.13252	0.44725
2856.20396	0.43965
2854.27539	0.43254
2852.34683	0.42589
2850.41826	0.41921
2848.48970	0.41215
2846.56113	0.40505
2844.63257	0.39831
2842.70400	0.39192
2840.77544	0.38582
2838.84687	0.37999
2836.91831	0.37437
2834.98975	0.36882
2833.06118	0.36324
2831.13262	0.35775
2829.20405	0.35252
2827.27549	0.34742
2825.34692	0.34223
2823.41836	0.33691
2821.48979	0.33153
2819.56123	0.32626
2817.63267	0.32123
2815.70410	0.31644
2813.77554	0.31176
2811.84697	0.30699
2809.91841	0.30219
2807.98984	0.29760
2806.06128	0.29320
2804.13271	0.28891
2802.20415	0.28470
2800.27559	0.28044
2798.34702	0.27628
2796.41846	0.27234
2794.48989	0.26845
2792.56133	0.26450
2790.63276	0.26063
2788.70420	0.25702
2786.77563	0.25349
2784.84707	0.24982
2782.91851	0.24612
2780.98994	0.24259
2779.06138	0.23934
2777.13281	0.23628
2775.20425	0.23327
2773.27568	0.23031
2771.34712	0.22734
2769.41855	0.22425
2767.48999	0.22117
2765.56143	0.21828
2763.63286	0.21546
2761.70430	0.21274
2759.77573	0.21021
2757.84717	0.20764
2755.91860	0.20500
2753.99004	0.20248
2752.06147	0.20014
2750.13291	0.19802
2748.20435	0.19598
2746.27578	0.19362
2744.34722	0.19111
2742.41865	0.18889
2740.49009	0.18689
2738.56152	0.18485
2736.63296	0.18277
2734.70439	0.18086
2732.77583	0.17914
2730.84727	0.17737
2728.91870	0.17544
2726.99014	0.17363
2725.06157	0.17205
2723.13301	0.17049
2721.20444	0.16877
2719.27588	0.16699
2717.34731	0.16539
2715.41875	0.16396
2713.49019	0.16250
2711.56162	0.16104
2709.63306	0.15971
2707.70449	0.15848
2705.77593	0.15723
2703.84736	0.15594
2701.91880	0.15466
2699.99023	0.15350
2698.06167	0.15239
2696.13311	0.15124
2694.20454	0.15017
2692.27598	0.14918
2690.34741	0.14807
2688.41885	0.14693
2686.49028	0.14601
2684.56172	0.14527
2682.63315	0.14443
2680.70459	0.14340
2678.77603	0.14233
2676.84746	0.14148
2674.91890	0.14097
2672.99033	0.14039
2671.06177	0.13947
2669.13320	0.13855
2667.20464	0.13790
2665.27607	0.13740
2663.34751	0.13688
2661.41895	0.13627
2659.49038	0.13558
2657.56182	0.13486
2655.63325	0.13426
2653.70469	0.13388
2651.77612	0.13357
2649.84756	0.13328
2647.91899	0.13298
2645.99043	0.13252
2644.06187	0.13196
2642.13330	0.13156
2640.20474	0.13136
2638.27617	0.13119
2636.34761	0.13096
2634.41904	0.13069
2632.49048	0.13053
2630.56191	0.13050
2628.63335	0.13035
2626.70479	0.13007
2624.77622	0.12984
2622.84766	0.12964
2620.91909	0.12946
2618.99053	0.12945
2617.06196	0.12960
2615.13340	0.12973
2613.20483	0.12972
2611.27627	0.12966
2609.34771	0.12976
2607.41914	0.13000
2605.49058	0.13019
2603.56201	0.13029
2601.63345	0.13032
2599.70488	0.13044
2597.77632	0.13070
2595.84775	0.13099
2593.91919	0.13119
2591.99062	0.13139
2590.06206	0.13165
2588.13350	0.13194
2586.20493	0.13230
2584.27637	0.13270
2582.34780	0.13310
2580.41924	0.13352
2578.49067	0.13391
2576.56211	0.13420
2574.63354	0.13450
2572.70498	0.13495
2570.77642	0.13549
2568.84785	0.13603
2566.91929	0.13653
2564.99072	0.13696
2563.06216	0.13737
2561.13359	0.13794
2559.20503	0.13869
2557.27646	0.13935
2555.34790	0.13988
2553.41934	0.14046
2551.49077	0.14117
2549.56221	0.14194
2547.63364	0.14266
2545.70508	0.14334
2543.77651	0.14396
2541.84795	0.14449
2539.91938	0.14505
2537.99082	0.14583
2536.06226	0.14672
2534.13369	0.14750
2532.20513	0.14814
2530.27656	0.14883
2528.34800	0.14961
2526.41943	0.15043
2524.49087	0.15133
2522.56230	0.15219
2520.63374	0.15284
2518.70518	0.15343
2516.77661	0.15416
2514.84805	0.15508
2512.91948	0.15599
2510.99092	0.15681
2509.06235	0.15769
2507.13379	0.15860
2505.20522	0.15936
2503.27666	0.16014
2501.34810	0.16113
2499.41953	0.16221
2497.49097	0.16315
2495.56240	0.16398
2493.63384	0.16487
2491.70527	0.16593
2489.77671	0.16697
2487.84814	0.16779
2485.91958	0.16848
2483.99102	0.16930
2482.06245	0.17030
2480.13389	0.17138
2478.20532	0.17237
2476.27676	0.17318
2474.34819	0.17395
2472.41963	0.17486
2470.49106	0.17595
2468.56250	0.17715
2466.63394	0.17826
2464.70537	0.17929
2462.77681	0.18033
2460.84824	0.18138
2458.91968	0.18234
2456.99111	0.18326
2455.06255	0.18427
2453.13398	0.18536
2451.20542	0.18643
2449.27686	0.18739
2447.34829	0.18835
2445.41973	0.18933
2443.49116	0.19036
2441.56260	0.19149
2439.63403	0.19266
2437.70547	0.19380
2435.77690	0.19493
2433.84834	0.19604
2431.91978	0.19713
2429.99121	0.19830
2428.06265	0.19957
2426.13408	0.20072
2424.20552	0.20172
2422.27695	0.20282
2420.34839	0.20410
2418.41982	0.20541
2416.49126	0.20665
2414.56270	0.20786
2412.63413	0.20906
2410.70557	0.21026
2408.77700	0.21146
2406.84844	0.21268
2404.91987	0.21393
2402.99131	0.21520
2401.06274	0.21648
2399.13418	0.21776
2397.20562	0.21901
2395.27705	0.22031
2393.34849	0.22171
2391.41992	0.22318
2389.49136	0.22506
2387.56279	0.22804
2385.63423	0.23294
2383.70566	0.24064
2381.77710	0.25163
2379.84854	0.26556
2377.91997	0.28176
2375.99141	0.30008
2374.06284	0.32102
2372.13428	0.34497
2370.20571	0.37141
2368.27715	0.39868
2366.34858	0.42435
2364.42002	0.44633
2362.49146	0.46320
2360.56289	0.47349
2358.63433	0.47508
2356.70576	0.46526
2354.77720	0.44460
2352.84863	0.41726
2350.92007	0.38918
2348.99150	0.37177
2347.06294	0.37255
2345.13437	0.39137
2343.20581	0.41566
2341.27725	0.42796
2339.34868	0.42873
2337.42012	0.42563
2335.49155	0.42208
2333.56299	0.41895
2331.63442	0.41704
2329.70586	0.41462
2327.77729	0.40971
2325.84873	0.40281
2323.92017	0.39546
2321.99160	0.38813
2320.06304	0.37947
2318.13447	0.36936
2316.20591	0.36024
2314.27734	0.35418
2312.34878	0.35073
2310.42021	0.34769
2308.49165	0.34339
2306.56309	0.33806
2304.63452	0.33314
2302.70596	0.32990
2300.77739	0.32822
2298.84883	0.32693
2296.92026	0.32545
2294.99170	0.32420
2293.06313	0.32329
2291.13457	0.32248
2289.20601	0.32179
2287.27744	0.32122
2285.34888	0.32079
2283.42031	0.32104
2281.49175	0.32257
2279.56318	0.32524
2277.63462	0.32826
2275.70605	0.33105
2273.77749	0.33353
2271.84893	0.33574
2269.92036	0.33773
2267.99180	0.33953
2266.06323	0.34133
2264.13467	0.34321
2262.20610	0.34506
2260.27754	0.34679
2258.34897	0.34846
2256.42041	0.35012
2254.49185	0.35174
2252.56328	0.35342
2250.63472	0.35518
2248.70615	0.35695
2246.77759	0.35880
2244.84902	0.36081
2242.92046	0.36292
2240.99189	0.36504
2239.06333	0.36718
2237.13477	0.36941
2235.20620	0.37165
2233.27764	0.37376
2231.34907	0.37589
2229.42051	0.37806
2227.49194	0.38010
2225.56338	0.38222
2223.63481	0.38465
2221.70625	0.38711
2219.77769	0.38938
2217.84912	0.39162
2215.92056	0.39388
2213.99199	0.39604
2212.06343	0.39815
2210.13486	0.40038
2208.20630	0.40255
2206.27773	0.40457
2204.34917	0.40663
2202.42061	0.40883
2200.49204	0.41105
2198.56348	0.41316
2196.63491	0.41509
2194.70635	0.41697
2192.77778	0.41897
2190.84922	0.42107
2188.92065	0.42305
2186.99209	0.42483
2185.06353	0.42663
2183.13496	0.42847
2181.20640	0.43025
2179.27783	0.43192
2177.34927	0.43360
2175.42070	0.43534
2173.49214	0.43703
2171.56357	0.43852
2169.63501	0.43986
2167.70645	0.44119
2165.77788	0.44249
2163.84932	0.44365
2161.92075	0.44469
2159.99219	0.44575
2158.06362	0.44696
2156.13506	0.44822
2154.20649	0.44923
2152.27793	0.44998
2150.34937	0.45065
2148.42080	0.45130
2146.49224	0.45193
2144.56367	0.45250
2142.63511	0.45303
2140.70654	0.45349
2138.77798	0.45385
2136.84941	0.45407
2134.92085	0.45421
2132.99229	0.45430
2131.06372	0.45428
2129.13516	0.45411
2127.20659	0.45392
2125.27803	0.45372
2123.34946	0.45338
2121.42090	0.45286
2119.49233	0.45233
2117.56377	0.45190
2115.63521	0.45127
2113.70664	0.45033
2111.77808	0.44932
2109.84951	0.44833
2107.92095	0.44731
2105.99238	0.44621
2104.06382	0.44506
2102.13525	0.44387
2100.20669	0.44265
2098.27812	0.44140
2096.34956	0.44012
2094.42100	0.43866
2092.49243	0.43699
2090.56387	0.43535
2088.63530	0.43375
2086.70674	0.43203
2084.77817	0.43017
2082.84961	0.42824
2080.92104	0.42629
2078.99248	0.42448
2077.06392	0.42264
2075.13535	0.42050
2073.20679	0.41812
2071.27822	0.41577
2069.34966	0.41357
2067.42109	0.41145
2065.49253	0.40931
2063.56396	0.40694
2061.63540	0.40439
2059.70684	0.40184
2057.77827	0.39931
2055.84971	0.39677
2053.92114	0.39422
2051.99258	0.39175
2050.06401	0.38928
2048.13545	0.38670
2046.20688	0.38410
2044.27832	0.38156
2042.34976	0.37895
2040.42119	0.37623
2038.49263	0.37344
2036.56406	0.37068
2034.63550	0.36792
2032.70693	0.36514
2030.77837	0.36237
2028.84980	0.35958
2026.92124	0.35683
2024.99268	0.35409
2023.06411	0.35131
2021.13555	0.34862
2019.20698	0.34615
2017.27842	0.34365
2015.34985	0.34076
2013.42129	0.33766
2011.49272	0.33474
2009.56416	0.33211
2007.63560	0.32956
2005.70703	0.32694
2003.77847	0.32426
2001.84990	0.32165
1999.92134	0.31908
1997.99277	0.31641
1996.06421	0.31375
1994.13564	0.31143
1992.20708	0.30924
1990.27852	0.30667
1988.34995	0.30389
1986.42139	0.30121
1984.49282	0.29865
1982.56426	0.29628
1980.63569	0.29405
1978.70713	0.29179
1976.77856	0.28949
1974.85000	0.28727
1972.92144	0.28510
1970.99287	0.28301
1969.06431	0.28113
1967.13574	0.27929
1965.20718	0.27708
1963.27861	0.27471
1961.35005	0.27260
1959.42148	0.27078
1957.49292	0.26907
1955.56436	0.26730
1953.63579	0.26543
1951.70723	0.26357
1949.77866	0.26193
1947.85010	0.26059
1945.92153	0.25944
1943.99297	0.25829
1942.06440	0.25688
1940.13584	0.25501
1938.20728	0.25313
1936.27871	0.25158
1934.35015	0.25022
1932.42158	0.24897
1930.49302	0.24780
1928.56445	0.24672
1926.63589	0.24574
1924.70732	0.24507
1922.77876	0.24454
1920.85020	0.24364
1918.92163	0.24269
1916.99307	0.24177
1915.06450	0.24052
1913.13594	0.23937
1911.20737	0.23876
1909.27881	0.23836
1907.35024	0.23763
1905.42168	0.23665
1903.49312	0.23588
1901.56455	0.23530
1899.63599	0.23475
1897.70742	0.23431
1895.77886	0.23402
1893.85029	0.23377
1891.92173	0.23357
1889.99316	0.23356
1888.06460	0.23324
1886.13604	0.23262
1884.20747	0.23218
1882.27891	0.23189
1880.35034	0.23173
1878.42178	0.23169
1876.49321	0.23169
1874.56465	0.23161
1872.63608	0.23180
1870.70752	0.23278
1868.77896	0.23435
1866.85039	0.23471
1864.92183	0.23370
1862.99326	0.23298
1861.06470	0.23300
1859.13613	0.23344
1857.20757	0.23385
1855.27900	0.23416
1853.35044	0.23446
1851.42187	0.23501
1849.49331	0.23594
1847.56475	0.23718
1845.63618	0.23872
1843.70762	0.24012
1841.77905	0.24030
1839.85049	0.23994
1837.92192	0.24041
1835.99336	0.24135
1834.06479	0.24233
1832.13623	0.24371
1830.20767	0.24587
1828.27910	0.24755
1826.35054	0.24830
1824.42197	0.24934
1822.49341	0.25022
1820.56484	0.25093
1818.63628	0.25207
1816.70771	0.25365
1814.77915	0.25530
1812.85059	0.25734
1810.92202	0.25980
1808.99346	0.26184
1807.06489	0.26343
1805.13633	0.26526
1803.20776	0.26782
1801.27920	0.27086
1799.35063	0.27390
1797.42207	0.27639
1795.49351	0.27896
1793.56494	0.28236
1791.63638	0.28632
1789.70781	0.28902
1787.77925	0.29079
1785.85068	0.29370
1783.92212	0.29757
1781.99355	0.30176
1780.06499	0.30614
1778.13643	0.31047
1776.20786	0.31470
1774.27930	0.31983
1772.35073	0.32682
1770.42217	0.33317
1768.49360	0.33738
1766.56504	0.34152
1764.63647	0.34649
1762.70791	0.35275
1760.77935	0.36058
1758.85078	0.36756
1756.92222	0.37454
1754.99365	0.38210
1753.06509	0.38921
1751.13652	0.39842
1749.20796	0.40994
1747.27939	0.42047
1745.35083	0.42930
1743.42227	0.43875
1741.49370	0.44936
1739.56514	0.46185
1737.63657	0.47438
1735.70801	0.48610
1733.77944	0.50394
1731.85088	0.52348
1729.92231	0.53782
1727.99375	0.55253
1726.06519	0.56891
1724.13662	0.58750
1722.20806	0.60772
1720.27949	0.62669
1718.35093	0.64963
1716.42236	0.68281
1714.49380	0.71251
1712.56523	0.73575
1710.63667	0.75884
1708.70811	0.78437
1706.77954	0.81386
1704.85098	0.84886
1702.92241	0.87958
1700.99385	0.91000
1699.06528	0.95536
1697.13672	0.99606
1695.20815	1.03590
1693.27959	1.07403
1691.35103	1.10523
1689.42246	1.14188
1687.49390	1.18053
1685.56533	1.21796
1683.63677	1.27431
1681.70820	1.33007
1679.77964	1.36485
1677.85107	1.39880
1675.92251	1.43863
1673.99395	1.48788
1672.06538	1.53168
1670.13682	1.57464
1668.20825	1.62816
1666.27969	1.66948
1664.35112	1.70414
1662.42256	1.74755
1660.49399	1.79589
1658.56543	1.83371
1656.63687	1.86582
1654.70830	1.89809
1652.77974	1.95119
1650.85117	2.00199
1648.92261	2.02365
1646.99404	2.05352
1645.06548	2.08663
1643.13691	2.10736
1641.20835	2.12094
1639.27979	2.13366
1637.35122	2.14353
1635.42266	2.14851
1633.49409	2.14465
1631.56553	2.13415
1629.63696	2.12130
1627.70840	2.09933
1625.77983	2.07267
1623.85127	2.03851
1621.92271	1.99587
1619.99414	1.95689
1618.06558	1.91860
1616.13701	1.86344
1614.20845	1.80483
1612.27988	1.75899
1610.35132	1.71125
1608.42275	1.65891
1606.49419	1.60665
1604.56562	1.55854
1602.63706	1.51219
1600.70850	1.46648
1598.77993	1.42382
1596.85137	1.38332
1594.92280	1.34396
1592.99424	1.30595
1591.06567	1.27062
1589.13711	1.23707
1587.20854	1.20549
1585.27998	1.17569
1583.35142	1.14741
1581.42285	1.12125
1579.49429	1.09859
1577.56572	1.07834
1575.63716	1.05268
1573.70859	1.02817
1571.78003	1.01181
1569.85146	0.99472
1567.92290	0.97422
1565.99434	0.95710
1564.06577	0.94268
1562.13721	0.93116
1560.20864	0.92259
1558.28008	0.90621
1556.35151	0.88737
1554.42295	0.87506
1552.49438	0.86366
1550.56582	0.85273
1548.63726	0.84194
1546.70869	0.83309
1544.78013	0.82634
1542.85156	0.82051
1540.92300	0.81375
1538.99443	0.80098
1537.06587	0.78958
1535.13730	0.78286
1533.20874	0.77582
1531.28018	0.76751
1529.35161	0.76112
1527.42305	0.75598
1525.49448	0.75105
1523.56592	0.74670
1521.63735	0.74194
1519.70879	0.73537
1517.78022	0.72925
1515.85166	0.72301
1513.92310	0.71682
1511.99453	0.71245
1510.06597	0.70993
1508.13740	0.70880
1506.20884	0.70393
1504.28027	0.69549
1502.35171	0.69042
1500.42314	0.68746
1498.49458	0.68502
1496.56602	0.68154
1494.63745	0.67718
1492.70889	0.67401
1490.78032	0.67236
1488.85176	0.67015
1486.92319	0.66592
1484.99463	0.66157
1483.06606	0.65817
1481.13750	0.65525
1479.20894	0.65251
1477.28037	0.65040
1475.35181	0.64899
1473.42324	0.64742
1471.49468	0.64344
1469.56611	0.63846
1467.63755	0.63512
1465.70898	0.63307
1463.78042	0.63083
1461.85186	0.62841
1459.92329	0.62723
1457.99473	0.62720
1456.06616	0.62542
1454.13760	0.62150
1452.20903	0.61841
1450.28047	0.61621
1448.35190	0.61446
1446.42334	0.61253
1444.49478	0.61051
1442.56621	0.60877
1440.63765	0.60737
1438.70908	0.60666
1436.78052	0.60628
1434.85195	0.60493
1432.92339	0.60310
1430.99482	0.60162
1429.06626	0.59996
1427.13770	0.59817
1425.20913	0.59694
1423.28057	0.59595
1421.35200	0.59493
1419.42344	0.59424
1417.49487	0.59283
1415.56631	0.59017
1413.63774	0.58778
1411.70918	0.58606
1409.78062	0.58469
1407.85205	0.58350
1405.92349	0.58246
1403.99492	0.58118
1402.06636	0.57990
1400.13779	0.57921
1398.20923	0.57867
1396.28066	0.57769
1394.35210	0.57616
1392.42354	0.57410
1390.49497	0.57243
1388.56641	0.57159
1386.63784	0.57063
1384.70928	0.56885
1382.78071	0.56713
1380.85215	0.56585
1378.92358	0.56480
1376.99502	0.56412
1375.06646	0.56380
1373.13789	0.56300
1371.20933	0.56159
1369.28076	0.56035
1367.35220	0.55929
1365.42363	0.55834
1363.49507	0.55779
1361.56650	0.55716
1359.63794	0.55592
1357.70937	0.55463
1355.78081	0.55359
1353.85225	0.55269
1351.92368	0.55187
1349.99512	0.55105
1348.06655	0.55011
1346.13799	0.54903
1344.20942	0.54810
1342.28086	0.54765
1340.35229	0.54755
1338.42373	0.54691
1336.49517	0.54546
1334.56660	0.54392
1332.63804	0.54273
1330.70947	0.54180
1328.78091	0.54090
1326.85234	0.54004
1324.92378	0.53930
1322.99521	0.53851
1321.06665	0.53769
1319.13809	0.53694
1317.20952	0.53607
1315.28096	0.53502
1313.35239	0.53400
1311.42383	0.53308
1309.49526	0.53220
1307.56670	0.53124
1305.63813	0.53021
1303.70957	0.52932
1301.78101	0.52856
1299.85244	0.52772
1297.92388	0.52691
1295.99531	0.52617
1294.06675	0.52532
1292.13818	0.52435
1290.20962	0.52343
1288.28105	0.52265
1286.35249	0.52188
1284.42393	0.52115
1282.49536	0.52050
1280.56680	0.51984
1278.63823	0.51908
1276.70967	0.51829
1274.78110	0.51756
1272.85254	0.51686
1270.92397	0.51608
1268.99541	0.51532
1267.06685	0.51460
1265.13828	0.51378
1263.20972	0.51301
1261.28115	0.51248
1259.35259	0.51201
1257.42402	0.51133
1255.49546	0.51060
1253.56689	0.50996
1251.63833	0.50932
1249.70977	0.50856
1247.78120	0.50778
1245.85264	0.50721
1243.92407	0.50676
1241.99551	0.50613
1240.06694	0.50533
1238.13838	0.50451
1236.20981	0.50370
1234.28125	0.50290
1232.35269	0.50209
1230.42412	0.50125
1228.49556	0.50048
1226.56699	0.49975
1224.63843	0.49892
1222.70986	0.49798
1220.78130	0.49702
1218.85273	0.49609
1216.92417	0.49526
1214.99561	0.49444
1213.06704	0.49357
1211.13848	0.49276
1209.20991	0.49201
1207.28135	0.49118
1205.35278	0.49028
1203.42422	0.48943
1201.49565	0.48854
1199.56709	0.48758
1197.63853	0.48674
1195.70996	0.48599
1193.78140	0.48505
1191.85283	0.48392
1189.92427	0.48276
1187.99570	0.48171
1186.06714	0.48077
1184.13857	0.47987
1182.21001	0.47895
1180.28145	0.47803
1178.35288	0.47720
1176.42432	0.47645
1174.49575	0.47568
1172.56719	0.47475
1170.63862	0.47374
1168.71006	0.47281
1166.78149	0.47202
1164.85293	0.47133
1162.92437	0.47058
1160.99580	0.46968
1159.06724	0.46874
1157.13867	0.46797
1155.21011	0.46732
1153.28154	0.46656
1151.35298	0.46567
1149.42441	0.46482
1147.49585	0.46404
1145.56729	0.46328
1143.63872	0.46249
1141.71016	0.46164
1139.78159	0.46070
1137.85303	0.45978
1135.92446	0.45904
1133.99590	0.45843
1132.06733	0.45786
1130.13877	0.45732
1128.21021	0.45670
1126.28164	0.45585
1124.35308	0.45503
1122.42451	0.45433
1120.49595	0.45362
1118.56738	0.45311
1116.63882	0.45275
1114.71025	0.45230
1112.78169	0.45187
1110.85312	0.45160
1108.92456	0.45131
1106.99600	0.45089
1105.06743	0.45052
1103.13887	0.45023
1101.21030	0.44980
1099.28174	0.44929
1097.35317	0.44897
1095.42461	0.44879
1093.49604	0.44860
1091.56748	0.44843
1089.63892	0.44835
1087.71035	0.44823
1085.78179	0.44796
1083.85322	0.44749
1081.92466	0.44699
1079.99609	0.44664
1078.06753	0.44645
1076.13896	0.44640
1074.21040	0.44651
1072.28184	0.44659
1070.35327	0.44662
1068.42471	0.44680
1066.49614	0.44730
1064.56758	0.44779
1062.63901	0.44797
1060.71045	0.44801
1058.78188	0.44814
1056.85332	0.44836
1054.92476	0.44854
1052.99619	0.44860
1051.06763	0.44877
1049.13906	0.44925
1047.21050	0.44977
1045.28193	0.45015
1043.35337	0.45058
1041.42480	0.45104
1039.49624	0.45147
1037.56768	0.45206
1035.63911	0.45291
1033.71055	0.45391
1031.78198	0.45487
1029.85342	0.45568
1027.92485	0.45648
1025.99629	0.45746
1024.06772	0.45873
1022.13916	0.45998
1020.21060	0.46103
1018.28203	0.46215
1016.35347	0.46346
1014.42490	0.46472
1012.49634	0.46583
1010.56777	0.46700
1008.63921	0.46846
1006.71064	0.47013
1004.78208	0.47187
1002.85352	0.47363
1000.92495	0.47549
998.99639	0.47760
997.06782	0.47989
995.13926	0.48206
993.21069	0.48403
991.28213	0.48602
989.35356	0.48827
987.42500	0.49073
985.49644	0.49320
983.56787	0.49581
981.63931	0.49865
979.71074	0.50162
977.78218	0.50462
975.85361	0.50759
973.92505	0.51056
971.99648	0.51381
970.06792	0.51750
968.13936	0.52132
966.21079	0.52497
964.28223	0.52886
962.35366	0.53332
960.42510	0.53781
958.49653	0.54193
956.56797	0.54611
954.63940	0.55062
952.71084	0.55536
950.78228	0.56034
948.85371	0.56540
946.92515	0.57022
944.99658	0.57501
943.06802	0.58050
941.13945	0.58685
939.21089	0.59310
937.28232	0.59880
935.35376	0.60480
933.42520	0.61174
931.49663	0.61911
929.56807	0.62613
927.63950	0.63259
925.71094	0.63923
923.78237	0.64674
921.85381	0.65466
919.92524	0.66250
917.99668	0.67045
916.06812	0.67835
914.13955	0.68616
912.21099	0.69463
910.28242	0.70386
908.35386	0.71253
906.42529	0.72068
904.49673	0.72992
902.56816	0.73994
900.63960	0.74978
898.71104	0.75933
896.78247	0.76841
894.85391	0.77811
892.92534	0.78881
890.99678	0.79924
889.06821	0.80970
887.13965	0.82091
885.21108	0.83187
883.28252	0.84173
881.35396	0.85146
879.42539	0.86241
877.49683	0.87404
875.56826	0.88527
873.63970	0.89682
871.71113	0.90920
869.78257	0.92066
867.85400	0.93055
865.92544	0.94058
863.99687	0.95181
862.06831	0.96400
860.13975	0.97666
858.21118	0.98944
856.28262	1.00133
854.35405	1.01273
852.42549	1.02483
850.49692	1.03740
848.56836	1.05022
846.63979	1.06220
844.71123	1.07242
842.78267	1.08168
840.85410	1.09153
838.92554	1.10496
836.99697	1.12235
835.06841	1.13709
833.13984	1.14521
831.21128	1.15157
829.28271	1.15991
827.35415	1.16993
825.42559	1.18243
823.49702	1.19826
821.56846	1.21345
819.63989	1.22768
817.71133	1.24539
815.78276	1.26395
813.85420	1.27674
811.92563	1.28506
809.99707	1.29640
808.06851	1.30620
806.13994	1.30701
804.21138	1.30672
802.28281	1.31334
800.35425	1.32326
798.42568	1.34100
796.49712	1.37090
794.56855	1.38606
792.63999	1.38863
790.71143	1.40816
788.78286	1.42630
786.85430	1.42212
784.92573	1.41205
782.99717	1.40610
781.06860	1.38971
779.14004	1.37729
777.21147	1.41534
775.28291	1.47131
773.35435	1.46304
771.42578	1.41738
769.49722	1.41942
767.56865	1.49547
765.64009	1.59399
763.71152	1.61213
761.78296	1.62303
759.85439	1.57383
757.92583	1.48915
755.99727	1.51762
754.06870	1.52794
752.14014	1.35783
750.21157	1.24199
748.28301	1.26792
746.35444	1.51422
744.42588	4.46656
742.49731	4.45498
740.56875	1.36632
738.64019	1.31540
736.71162	1.17025
734.78306	0.91472
732.85449	0.82628
730.92593	0.81137
728.99736	0.71891
727.06880	0.67775
725.14023	0.64248
723.21167	0.52733
721.28311	0.41112
719.35454	0.38586
717.42598	0.41872
715.49741	0.37000
713.56885	0.26748
711.64028	0.26945
709.71172	0.46071
707.78315	0.70735
705.85459	0.65493
703.92603	0.77596
701.99746	1.11909
700.06890	1.33792
698.14033	0.75461
696.21177	0.43495
694.28320	0.35033
692.35464	0.40052
690.42607	0.50633
688.49751	0.60481
686.56895	0.61415
684.64038	0.52906
682.71182	0.48123
680.78325	0.49595
678.85469	0.45459
676.92612	0.36101
674.99756	0.30606
673.06899	0.28928
671.14043	0.35276
669.21187	0.58151
667.28330	0.83998
665.35474	0.59701
663.42617	0.44106
661.49761	0.39090
659.56904	0.44162
657.64048	0.63155
655.71191	0.75884
653.78335	0.69188
651.85479	0.53880
649.92622	0.39218
647.99766	0.34919
646.06909	0.37612
644.14053	0.38513
642.21196	0.37199
640.28340	0.36674
638.35483	0.33441
636.42627	0.28081
634.49771	0.28116
632.56914	0.31780
630.64058	0.31099
628.71201	0.29427
626.78345	0.30605
624.85488	0.30629
622.92632	0.28236
620.99775	0.25220
619.06919	0.24910
617.14062	0.27720
615.21206	0.25827
613.28350	0.20439
611.35493	0.18467
609.42637	0.21984
607.49780	0.31220
605.56924	0.31556
603.64067	0.21002
601.71211	0.28483
599.78354	0.68605
597.85498	0.73131
595.92642	0.36335
593.99785	0.29361
592.06929	0.33702
590.14072	0.36753
588.21216	0.37741
586.28359	0.37834
584.35503	0.36624
582.42646	0.40661
580.49790	0.55262
578.56934	0.64669
576.64077	0.49681
574.71221	0.38515
572.78364	0.31237
570.85508	0.25973
568.92651	0.25267
566.99795	0.31926
565.06938	0.43765
563.14082	0.40093
561.21226	0.28425
559.28369	0.23006
557.35513	0.21947
555.42656	0.23736
553.49800	0.27852
551.56943	0.35900
549.64087	0.47323
547.71230	0.41468
545.78374	0.26529
543.85518	0.28174
541.92661	0.47029
539.99805	0.49936
538.06948	0.30062
536.14092	0.21584
534.21235	0.20979
532.28379	0.21025
530.35522	0.21169
528.42666	0.22724
526.49810	0.26813
524.56953	0.32010
522.64097	0.33142
520.71240	0.38174
518.78384	0.48716
516.85527	0.39105
514.92671	0.29473
512.99814	0.31294
511.06958	0.37479
509.14102	0.36595
507.21245	0.29836
505.28389	0.25924
503.35532	0.26368
501.42676	0.25277
499.49819	0.21267
