3997.91411	0.06883
3995.98555	0.06929
3994.05698	0.06987
3992.12842	0.07031
3990.19985	0.07069
3988.27129	0.07096
3986.34272	0.07090
3984.41416	0.07091
3982.48560	0.07138
3980.55703	0.07182
3978.62847	0.07203
3976.69990	0.07236
3974.77134	0.07288
3972.84277	0.07329
3970.91421	0.07342
3968.98564	0.07337
3967.05708	0.07314
3965.12852	0.07286
3963.19995	0.07330
3961.27139	0.07436
3959.34282	0.07493
3957.41426	0.07487
3955.48569	0.07467
3953.55713	0.07487
3951.62856	0.07593
3949.70000	0.07711
3947.77144	0.07719
3945.84287	0.07659
3943.91431	0.07692
3941.98574	0.07778
3940.05718	0.07716
3938.12861	0.07554
3936.20005	0.07480
3934.27148	0.07551
3932.34292	0.07731
3930.41436	0.07862
3928.48579	0.07777
3926.55723	0.07649
3924.62866	0.07715
3922.70010	0.07818
3920.77153	0.07777
3918.84297	0.07768
3916.91440	0.07849
3914.98584	0.07800
3913.05728	0.07583
3911.12871	0.07383
3909.20015	0.07313
3907.27158	0.07461
3905.34302	0.07889
3903.41445	0.08394
3901.48589	0.08597
3899.55732	0.08486
3897.62876	0.08171
3895.70020	0.07816
3893.77163	0.07737
3891.84307	0.07961
3889.91450	0.08064
3887.98594	0.07903
3886.05737	0.07912
3884.12881	0.08123
3882.20024	0.08258
3880.27168	0.08313
3878.34312	0.08159
3876.41455	0.07949
3874.48599	0.08069
3872.55742	0.08408
3870.62886	0.08702
3868.70029	0.08798
3866.77173	0.08635
3864.84316	0.08605
3862.91460	0.08708
3860.98604	0.08541
3859.05747	0.08305
3857.12891	0.08376
3855.20034	0.08846
3853.27178	0.09672
3851.34321	0.09926
3849.41465	0.09203
3847.48608	0.08570
3845.55752	0.08380
3843.62896	0.08617
3841.70039	0.09086
3839.77183	0.09581
3837.84326	0.09918
3835.91470	0.09833
3833.98613	0.09522
3832.05757	0.09276
3830.12900	0.09103
3828.20044	0.09062
3826.27187	0.09202
3824.34331	0.09421
3822.41475	0.09796
3820.48618	0.10389
3818.55762	0.10561
3816.62905	0.10338
3814.70049	0.10093
3812.77192	0.09716
3810.84336	0.09473
3808.91479	0.09624
3806.98623	0.10098
3805.05767	0.10510
3803.12910	0.10791
3801.20054	0.11178
3799.27197	0.11289
3797.34341	0.11105
3795.41484	0.10956
3793.48628	0.10718
3791.55771	0.10528
3789.62915	0.10568
3787.70059	0.10771
3785.77202	0.11062
3783.84346	0.11325
3781.91489	0.11484
3779.98633	0.11691
3778.05776	0.11905
3776.12920	0.11887
3774.20063	0.11835
3772.27207	0.11996
3770.34351	0.12397
3768.41494	0.12842
3766.48638	0.13095
3764.55781	0.13260
3762.62925	0.13385
3760.70068	0.13612
3758.77212	0.14078
3756.84355	0.14494
3754.91499	0.14742
3752.98643	0.15192
3751.05786	0.16059
3749.12930	0.16880
3747.20073	0.17126
3745.27217	0.17349
3743.34360	0.17850
3741.41504	0.18258
3739.48647	0.18644
3737.55791	0.19434
3735.62935	0.20746
3733.70078	0.21946
3731.77222	0.22368
3729.84365	0.22541
3727.91509	0.22929
3725.98652	0.23592
3724.05796	0.24256
3722.12939	0.24612
3720.20083	0.24703
3718.27227	0.24640
3716.34370	0.24636
3714.41514	0.25049
3712.48657	0.26327
3710.55801	0.28543
3708.62944	0.30419
3706.70088	0.31373
3704.77231	0.32259
3702.84375	0.33531
3700.91519	0.35211
3698.98662	0.36901
3697.05806	0.38435
3695.12949	0.40130
3693.20093	0.42074
3691.27236	0.44345
3689.34380	0.47185
3687.41523	0.50235
3685.48667	0.52686
3683.55811	0.54890
3681.62954	0.57479
3679.70098	0.60648
3677.77241	0.64204
3675.84385	0.68490
3673.91528	0.73872
3671.98672	0.77955
3670.05815	0.81672
3668.12959	0.86750
3666.20103	0.91101
3664.27246	0.94756
3662.34390	0.98935
3660.41533	1.03615
3658.48677	1.08348
3656.55820	1.13473
3654.62964	1.19093
3652.70107	1.23784
3650.77251	1.28137
3648.84395	1.34283
3646.91538	1.41155
3644.98682	1.45660
3643.05825	1.49170
3641.12969	1.53089
3639.20112	1.57633
3637.27256	1.62302
3635.34399	1.66917
3633.41543	1.71608
3631.48687	1.76055
3629.55830	1.80597
3627.62974	1.86369
3625.70117	1.91338
3623.77261	1.94428
3621.84404	1.97506
3619.91548	2.01249
3617.98691	2.05705
3616.05835	2.09798
3614.12979	2.13267
3612.20122	2.17074
3610.27266	2.20984
3608.34409	2.25169
3606.41553	2.29734
3604.48696	2.33723
3602.55840	2.37211
3600.62983	2.41130
3598.70127	2.45358
3596.77271	2.49364
3594.84414	2.53411
3592.91558	2.57550
3590.98701	2.61370
3589.05845	2.65009
3587.12988	2.69407
3585.20132	2.73973
3583.27275	2.77549
3581.34419	2.80919
3579.41562	2.84835
3577.48706	2.89174
3575.55850	2.93544
3573.62993	2.97860
3571.70137	3.01957
3569.77280	3.06076
3567.84424	3.10821
3565.91567	3.16554
3563.98711	3.21672
3562.05854	3.25496
3560.12998	3.29290
3558.20142	3.33407
3556.27285	3.37663
3554.34429	3.42172
3552.41572	3.47232
3550.48716	3.52265
3548.55859	3.56612
3546.63003	3.60758
3544.70146	3.65386
3542.77290	3.70173
3540.84434	3.74836
3538.91577	3.79674
3536.98721	3.84567
3535.05864	3.89607
3533.13008	3.94793
3531.20151	3.99650
3529.27295	4.03972
3527.34438	4.08290
3525.41582	4.12955
3523.48726	4.17930
3521.55869	4.23059
3519.63013	4.28053
3517.70156	4.33013
3515.77300	4.37806
3513.84443	4.42349
3511.91587	4.46918
3509.98730	4.51817
3508.05874	4.57040
3506.13018	4.62404
3504.20161	4.67613
3502.27305	4.72169
3500.34448	4.76135
3498.41592	4.80118
3496.48735	4.84727
3494.55879	4.89978
3492.63022	4.95051
3490.70166	4.99587
3488.77310	5.04191
3486.84453	5.09153
3484.91597	5.14292
3482.98740	5.19672
3481.05884	5.25118
3479.13027	5.29920
3477.20171	5.34504
3475.27314	5.39941
3473.34458	5.45689
3471.41602	5.50454
3469.48745	5.54035
3467.55889	5.57317
3465.63032	5.61313
3463.70176	5.66512
3461.77319	5.72349
3459.84463	5.78360
3457.91606	5.84493
3455.98750	5.90358
3454.05894	5.95052
3452.13037	5.98519
3450.20181	6.02253
3448.27324	6.06805
3446.34468	6.12158
3444.41611	6.17776
3442.48755	6.22864
3440.55898	6.27345
3438.63042	6.31484
3436.70186	6.35701
3434.77329	6.40627
3432.84473	6.46349
3430.91616	6.52529
3428.98760	6.58395
3427.05903	6.62439
3425.13047	6.66679
3423.20190	6.71946
3421.27334	6.76253
3419.34478	6.79492
3417.41621	6.82837
3415.48765	6.87622
3413.55908	6.92455
3411.63052	6.96221
3409.70195	7.00867
3407.77339	7.06183
3405.84482	7.10407
3403.91626	7.15548
3401.98770	7.19182
3400.05913	7.20085
3398.13057	7.24290
3396.20200	7.31941
3394.27344	7.38519
3392.34487	7.42416
3390.41631	7.46010
3388.48774	7.48520
3386.55918	7.49664
3384.63062	7.51955
3382.70205	7.55530
3380.77349	7.58145
3378.84492	7.58917
3376.91636	7.60839
3374.98779	7.64852
3373.05923	7.67274
3371.13066	7.65564
3369.20210	7.68247
3367.27354	7.77607
3365.34497	7.82432
3363.41641	7.79931
3361.48784	7.78103
3359.55928	7.80597
3357.63071	7.86027
3355.70215	7.91938
3353.77358	7.92220
3351.84502	7.89453
3349.91646	7.92890
3347.98789	8.04617
3346.05933	8.13246
3344.13076	8.10602
3342.20220	8.03235
3340.27363	7.96248
3338.34507	7.95626
3336.41650	8.00589
3334.48794	8.01938
3332.55937	7.96850
3330.63081	7.97157
3328.70225	8.05189
3326.77368	8.09185
3324.84512	8.08888
3322.91655	8.07220
3320.98799	8.03501
3319.05942	8.02758
3317.13086	8.09538
3315.20229	8.15785
3313.27373	8.14770
3311.34517	8.10251
3309.41660	8.07701
3307.48804	8.10148
3305.55947	8.13021
3303.63091	8.12921
3301.70234	8.12543
3299.77378	8.12830
3297.84521	8.08626
3295.91665	8.02492
3293.98809	8.02258
3292.05952	8.08483
3290.13096	8.13967
3288.20239	8.14548
3286.27383	8.16056
3284.34526	8.16461
3282.41670	8.13171
3280.48813	8.12552
3278.55957	8.13497
3276.63101	8.12902
3274.70244	8.17982
3272.77388	8.25041
3270.84531	8.21597
3268.91675	8.12751
3266.98818	8.08794
3265.05962	8.12539
3263.13105	8.18184
3261.20249	8.22394
3259.27393	8.25902
3257.34536	8.24714
3255.41680	8.20367
3253.48823	8.18281
3251.55967	8.15929
3249.63110	8.12374
3247.70254	8.11241
3245.77397	8.11559
3243.84541	8.12604
3241.91685	8.17116
3239.98828	8.21834
3238.05972	8.18705
3236.13115	8.16607
3234.20259	8.20275
3232.27402	8.18546
3230.34546	8.13368
3228.41689	8.10606
3226.48833	8.07441
3224.55977	8.04282
3222.63120	8.07734
3220.70264	8.10566
3218.77407	8.00703
3216.84551	7.93416
3214.91694	7.96735
3212.98838	7.93647
3211.05981	7.85346
3209.13125	7.86323
3207.20269	7.88734
3205.27412	7.83956
3203.34556	7.80751
3201.41699	7.82987
3199.48843	7.80767
3197.55986	7.71869
3195.63130	7.66085
3193.70273	7.64073
3191.77417	7.62617
3189.84561	7.60354
3187.91704	7.55914
3185.98848	7.51530
3184.05991	7.48190
3182.13135	7.43155
3180.20278	7.34571
3178.27422	7.26559
3176.34565	7.23385
3174.41709	7.20611
3172.48853	7.13614
3170.55996	7.04835
3168.63140	6.96549
3166.70283	6.89297
3164.77427	6.84633
3162.84570	6.80941
3160.91714	6.75338
3158.98857	6.68837
3157.06001	6.62217
3155.13145	6.56181
3153.20288	6.51163
3151.27432	6.45834
3149.34575	6.38335
3147.41719	6.29012
3145.48862	6.20793
3143.56006	6.13625
3141.63149	6.06890
3139.70293	6.01363
3137.77437	5.95706
3135.84580	5.88491
3133.91724	5.80715
3131.98867	5.73184
3130.06011	5.65442
3128.13154	5.58250
3126.20298	5.51898
3124.27441	5.45375
3122.34585	5.38595
3120.41729	5.31503
3118.48872	5.23926
3116.56016	5.16556
3114.63159	5.09690
3112.70303	5.02803
3110.77446	4.95568
3108.84590	4.88406
3106.91733	4.81987
3104.98877	4.75944
3103.06021	4.69301
3101.13164	4.61940
3099.20308	4.54492
3097.27451	4.47610
3095.34595	4.41333
3093.41738	4.35125
3091.48882	4.28789
3089.56025	4.22449
3087.63169	4.16157
3085.70312	4.10027
3083.77456	4.04090
3081.84600	3.98215
3079.91743	3.92124
3077.98887	3.85788
3076.06030	3.79656
3074.13174	3.73956
3072.20317	3.68388
3070.27461	3.62694
3068.34604	3.56862
3066.41748	3.51059
3064.48892	3.45532
3062.56035	3.40126
3060.63179	3.34562
3058.70322	3.29009
3056.77466	3.23737
3054.84609	3.18588
3052.91753	3.13350
3050.98896	3.08186
3049.06040	3.03101
3047.13184	2.97938
3045.20327	2.92842
3043.27471	2.88011
3041.34614	2.83300
3039.41758	2.78536
3037.48901	2.73840
3035.56045	2.69294
3033.63188	2.64822
3031.70332	2.60353
3029.77476	2.55893
3027.84619	2.51514
3025.91763	2.47179
3023.98906	2.42796
3022.06050	2.38488
3020.13193	2.34403
3018.20337	2.30461
3016.27480	2.26517
3014.34624	2.22495
3012.41768	2.18502
3010.48911	2.14697
3008.56055	2.11023
3006.63198	2.07374
3004.70342	2.03754
3002.77485	2.00204
3000.84629	1.96752
2998.91772	1.93385
2996.98916	1.90110
2995.06060	1.86934
2993.13203	1.83840
2991.20347	1.80829
2989.27490	1.77853
2987.34634	1.74892
2985.41777	1.72038
2983.48921	1.69263
2981.56064	1.66487
2979.63208	1.63759
2977.70352	1.61096
2975.77495	1.58482
2973.84639	1.55941
2971.91782	1.53448
2969.98926	1.50967
2968.06069	1.48487
2966.13213	1.46008
2964.20356	1.43556
2962.27500	1.41153
2960.34644	1.38787
2958.41787	1.36432
2956.48931	1.34048
2954.56074	1.31644
2952.63218	1.29268
2950.70361	1.26921
2948.77505	1.24629
2946.84648	1.22409
2944.91792	1.20223
2942.98936	1.18077
2941.06079	1.15984
2939.13223	1.13892
2937.20366	1.11765
2935.27510	1.09669
2933.34653	1.07679
2931.41797	1.05696
2929.48940	1.03643
2927.56084	1.01608
2925.63228	0.99634
2923.70371	0.97746
2921.77515	0.96009
2919.84658	0.94422
2917.91802	0.92914
2915.98945	0.91415
2914.06089	0.89905
2912.13232	0.88380
2910.20376	0.86851
2908.27520	0.85331
2906.34663	0.83820
2904.41807	0.82360
2902.48950	0.80989
2900.56094	0.79676
2898.63237	0.78354
2896.70381	0.77031
2894.77524	0.75768
2892.84668	0.74554
2890.91812	0.73356
2888.98955	0.72223
2887.06099	0.71155
2885.13242	0.70096
2883.20386	0.69061
2881.27529	0.68088
2879.34673	0.67156
2877.41816	0.66208
2875.48960	0.65220
2873.56104	0.64192
2871.63247	0.63111
2869.70391	0.61972
2867.77534	0.60795
2865.84678	0.59601
2863.91821	0.58397
2861.98965	0.57205
2860.06108	0.56030
2858.13252	0.54856
2856.20396	0.53742
2854.27539	0.52772
2852.34683	0.51943
2850.41826	0.51187
2848.48970	0.50444
2846.56113	0.49705
2844.63257	0.48981
2842.70400	0.48276
2840.77544	0.47616
2838.84687	0.47022
2836.91831	0.46465
2834.98975	0.45889
2833.06118	0.45274
2831.13262	0.44654
2829.20405	0.44064
2827.27549	0.43490
2825.34692	0.42910
2823.41836	0.42307
2821.48979	0.41690
2819.56123	0.41096
2817.63267	0.40531
2815.70410	0.39979
2813.77554	0.39420
2811.84697	0.38841
2809.91841	0.38268
2807.98984	0.37730
2806.06128	0.37222
2804.13271	0.36725
2802.20415	0.36225
2800.27559	0.35719
2798.34702	0.35205
2796.41846	0.34702
2794.48989	0.34226
2792.56133	0.33766
2790.63276	0.33310
2788.70420	0.32854
2786.77563	0.32398
2784.84707	0.31948
2782.91851	0.31511
2780.98994	0.31093
2779.06138	0.30688
2777.13281	0.30282
2775.20425	0.29871
2773.27568	0.29474
2771.34712	0.29108
2769.41855	0.28760
2767.48999	0.28412
2765.56143	0.28061
2763.63286	0.27698
2761.70430	0.27336
2759.77573	0.27001
2757.84717	0.26681
2755.91860	0.26360
2753.99004	0.26046
2752.06147	0.25733
2750.13291	0.25430
2748.20435	0.25145
2746.27578	0.24850
2744.34722	0.24550
2742.41865	0.24274
2740.49009	0.24018
2738.56152	0.23768
2736.63296	0.23511
2734.70439	0.23240
2732.77583	0.22977
2730.84727	0.22740
2728.91870	0.22515
2726.99014	0.22286
2725.06157	0.22059
2723.13301	0.21837
2721.20444	0.21609
2719.27588	0.21386
2717.34731	0.21193
2715.41875	0.21012
2713.49019	0.20825
2711.56162	0.20646
2709.63306	0.20477
2707.70449	0.20304
2705.77593	0.20124
2703.84736	0.19953
2701.91880	0.19806
2699.99023	0.19669
2698.06167	0.19521
2696.13311	0.19371
2694.20454	0.19231
2692.27598	0.19096
2690.34741	0.18961
2688.41885	0.18832
2686.49028	0.18709
2684.56172	0.18586
2682.63315	0.18456
2680.70459	0.18317
2678.77603	0.18173
2676.84746	0.18048
2674.91890	0.17948
2672.99033	0.17841
2671.06177	0.17717
2669.13320	0.17595
2667.20464	0.17496
2665.27607	0.17409
2663.34751	0.17317
2661.41895	0.17225
2659.49038	0.17137
2657.56182	0.17049
2655.63325	0.16972
2653.70469	0.16899
2651.77612	0.16822
2649.84756	0.16757
2647.91899	0.16695
2645.99043	0.16614
2644.06187	0.16527
2642.13330	0.16462
2640.20474	0.16418
2638.27617	0.16370
2636.34761	0.16323
2634.41904	0.16283
2632.49048	0.16237
2630.56191	0.16187
2628.63335	0.16138
2626.70479	0.16088
2624.77622	0.16038
2622.84766	0.15997
2620.91909	0.15971
2618.99053	0.15954
2617.06196	0.15929
2615.13340	0.15909
2613.20483	0.15899
2611.27627	0.15883
2609.34771	0.15863
2607.41914	0.15845
2605.49058	0.15821
2603.56201	0.15796
2601.63345	0.15787
2599.70488	0.15789
2597.77632	0.15790
2595.84775	0.15789
2593.91919	0.15791
2591.99062	0.15792
2590.06206	0.15797
2588.13350	0.15817
2586.20493	0.15841
2584.27637	0.15857
2582.34780	0.15875
2580.41924	0.15895
2578.49067	0.15904
2576.56211	0.15909
2574.63354	0.15931
2572.70498	0.15970
2570.77642	0.16011
2568.84785	0.16054
2566.91929	0.16091
2564.99072	0.16114
2563.06216	0.16142
2561.13359	0.16193
2559.20503	0.16248
2557.27646	0.16288
2555.34790	0.16323
2553.41934	0.16369
2551.49077	0.16426
2549.56221	0.16485
2547.63364	0.16534
2545.70508	0.16582
2543.77651	0.16641
2541.84795	0.16693
2539.91938	0.16739
2537.99082	0.16802
2536.06226	0.16873
2534.13369	0.16930
2532.20513	0.16988
2530.27656	0.17058
2528.34800	0.17123
2526.41943	0.17171
2524.49087	0.17231
2522.56230	0.17323
2520.63374	0.17418
2518.70518	0.17484
2516.77661	0.17534
2514.84805	0.17599
2512.91948	0.17674
2510.99092	0.17749
2509.06235	0.17828
2507.13379	0.17898
2505.20522	0.17960
2503.27666	0.18033
2501.34810	0.18130
2499.41953	0.18241
2497.49097	0.18340
2495.56240	0.18417
2493.63384	0.18481
2491.70527	0.18551
2489.77671	0.18633
2487.84814	0.18706
2485.91958	0.18770
2483.99102	0.18847
2482.06245	0.18942
2480.13389	0.19037
2478.20532	0.19121
2476.27676	0.19197
2474.34819	0.19269
2472.41963	0.19344
2470.49106	0.19434
2468.56250	0.19531
2466.63394	0.19627
2464.70537	0.19730
2462.77681	0.19832
2460.84824	0.19922
2458.91968	0.20003
2456.99111	0.20080
2455.06255	0.20167
2453.13398	0.20274
2451.20542	0.20384
2449.27686	0.20477
2447.34829	0.20557
2445.41973	0.20638
2443.49116	0.20730
2441.56260	0.20823
2439.63403	0.20912
2437.70547	0.21005
2435.77690	0.21102
2433.84834	0.21210
2431.91978	0.21325
2429.99121	0.21438
2428.06265	0.21546
2426.13408	0.21640
2424.20552	0.21733
2422.27695	0.21850
2420.34839	0.21978
2418.41982	0.22088
2416.49126	0.22188
2414.56270	0.22294
2412.63413	0.22410
2410.70557	0.22522
2408.77700	0.22628
2406.84844	0.22734
2404.91987	0.22849
2402.99131	0.22971
2401.06274	0.23084
2399.13418	0.23193
2397.20562	0.23317
2395.27705	0.23447
2393.34849	0.23577
2391.41992	0.23727
2389.49136	0.23942
2387.56279	0.24319
2385.63423	0.25014
2383.70566	0.26184
2381.77710	0.27878
2379.84854	0.29990
2377.91997	0.32404
2375.99141	0.35147
2374.06284	0.38308
2372.13428	0.41877
2370.20571	0.45751
2368.27715	0.49731
2366.34858	0.53546
2364.42002	0.56873
2362.49146	0.59302
2360.56289	0.60604
2358.63433	0.60686
2356.70576	0.59210
2354.77720	0.56075
2352.84863	0.51856
2350.92007	0.47540
2348.99150	0.44856
2347.06294	0.44905
2345.13437	0.47640
2343.20581	0.51177
2341.27725	0.52896
2339.34868	0.52868
2337.42012	0.52283
2335.49155	0.51672
2333.56299	0.51141
2331.63442	0.50784
2329.70586	0.50362
2327.77729	0.49610
2325.84873	0.48556
2323.92017	0.47357
2321.99160	0.46068
2320.06304	0.44577
2318.13447	0.42930
2316.20591	0.41473
2314.27734	0.40487
2312.34878	0.39881
2310.42021	0.39306
2308.49165	0.38512
2306.56309	0.37541
2304.63452	0.36635
2302.70596	0.36018
2300.77739	0.35648
2298.84883	0.35325
2296.92026	0.34987
2294.99170	0.34674
2293.06313	0.34389
2291.13457	0.34113
2289.20601	0.33859
2287.27744	0.33633
2285.34888	0.33440
2283.42031	0.33358
2281.49175	0.33472
2279.56318	0.33750
2277.63462	0.34079
2275.70605	0.34383
2273.77749	0.34642
2271.84893	0.34866
2269.92036	0.35059
2267.99180	0.35227
2266.06323	0.35391
2264.13467	0.35557
2262.20610	0.35714
2260.27754	0.35852
2258.34897	0.35971
2256.42041	0.36089
2254.49185	0.36226
2252.56328	0.36369
2250.63472	0.36504
2248.70615	0.36650
2246.77759	0.36820
2244.84902	0.37007
2242.92046	0.37199
2240.99189	0.37399
2239.06333	0.37609
2237.13477	0.37823
2235.20620	0.38031
2233.27764	0.38228
2231.34907	0.38430
2229.42051	0.38640
2227.49194	0.38853
2225.56338	0.39074
2223.63481	0.39300
2221.70625	0.39521
2219.77769	0.39739
2217.84912	0.39958
2215.92056	0.40176
2213.99199	0.40390
2212.06343	0.40599
2210.13486	0.40801
2208.20630	0.41000
2206.27773	0.41202
2204.34917	0.41409
2202.42061	0.41619
2200.49204	0.41825
2198.56348	0.42018
2196.63491	0.42198
2194.70635	0.42384
2192.77778	0.42584
2190.84922	0.42791
2188.92065	0.42991
2186.99209	0.43177
2185.06353	0.43353
2183.13496	0.43520
2181.20640	0.43681
2179.27783	0.43839
2177.34927	0.43993
2175.42070	0.44148
2173.49214	0.44309
2171.56357	0.44457
2169.63501	0.44589
2167.70645	0.44723
2165.77788	0.44853
2163.84932	0.44968
2161.92075	0.45076
2159.99219	0.45185
2158.06362	0.45287
2156.13506	0.45374
2154.20649	0.45452
2152.27793	0.45533
2150.34937	0.45609
2148.42080	0.45670
2146.49224	0.45727
2144.56367	0.45782
2142.63511	0.45829
2140.70654	0.45869
2138.77798	0.45899
2136.84941	0.45908
2134.92085	0.45909
2132.99229	0.45920
2131.06372	0.45929
2129.13516	0.45916
2127.20659	0.45880
2125.27803	0.45833
2123.34946	0.45791
2121.42090	0.45758
2119.49233	0.45716
2117.56377	0.45650
2115.63521	0.45565
2113.70664	0.45475
2111.77808	0.45386
2109.84951	0.45288
2107.92095	0.45182
2105.99238	0.45068
2104.06382	0.44951
2102.13525	0.44823
2100.20669	0.44680
2098.27812	0.44538
2096.34956	0.44409
2094.42100	0.44273
2092.49243	0.44115
2090.56387	0.43946
2088.63530	0.43771
2086.70674	0.43587
2084.77817	0.43392
2082.84961	0.43189
2080.92104	0.42979
2078.99248	0.42778
2077.06392	0.42582
2075.13535	0.42373
2073.20679	0.42142
2071.27822	0.41900
2069.34966	0.41676
2067.42109	0.41481
2065.49253	0.41287
2063.56396	0.41047
2061.63540	0.40768
2059.70684	0.40493
2057.77827	0.40235
2055.84971	0.39980
2053.92114	0.39719
2051.99258	0.39462
2050.06401	0.39211
2048.13545	0.38955
2046.20688	0.38695
2044.27832	0.38449
2042.34976	0.38203
2040.42119	0.37932
2038.49263	0.37644
2036.56406	0.37360
2034.63550	0.37078
2032.70693	0.36787
2030.77837	0.36497
2028.84980	0.36221
2026.92124	0.35954
2024.99268	0.35682
2023.06411	0.35405
2021.13555	0.35137
2019.20698	0.34892
2017.27842	0.34643
2015.34985	0.34347
2013.42129	0.34037
2011.49272	0.33755
2009.56416	0.33493
2007.63560	0.33227
2005.70703	0.32950
2003.77847	0.32675
2001.84990	0.32419
1999.92134	0.32168
1997.99277	0.31903
1996.06421	0.31637
1994.13564	0.31410
1992.20708	0.31204
1990.27852	0.30951
1988.34995	0.30668
1986.42139	0.30400
1984.49282	0.30144
1982.56426	0.29904
1980.63569	0.29679
1978.70713	0.29457
1976.77856	0.29233
1974.85000	0.29014
1972.92144	0.28796
1970.99287	0.28591
1969.06431	0.28422
1967.13574	0.28260
1965.20718	0.28038
1963.27861	0.27788
1961.35005	0.27577
1959.42148	0.27398
1957.49292	0.27233
1955.56436	0.27070
1953.63579	0.26893
1951.70723	0.26704
1949.77866	0.26526
1947.85010	0.26376
1945.92153	0.26262
1943.99297	0.26176
1942.06440	0.26062
1940.13584	0.25864
1938.20728	0.25656
1936.27871	0.25498
1934.35015	0.25362
1932.42158	0.25232
1930.49302	0.25109
1928.56445	0.24993
1926.63589	0.24894
1924.70732	0.24847
1922.77876	0.24820
1920.85020	0.24739
1918.92163	0.24646
1916.99307	0.24551
1915.06450	0.24406
1913.13594	0.24274
1911.20737	0.24220
1909.27881	0.24195
1907.35024	0.24124
1905.42168	0.24012
1903.49312	0.23927
1901.56455	0.23873
1899.63599	0.23824
1897.70742	0.23792
1895.77886	0.23782
1893.85029	0.23761
1891.92173	0.23737
1889.99316	0.23749
1888.06460	0.23728
1886.13604	0.23651
1884.20747	0.23589
1882.27891	0.23547
1880.35034	0.23518
1878.42178	0.23510
1876.49321	0.23515
1874.56465	0.23521
1872.63608	0.23562
1870.70752	0.23696
1868.77896	0.23896
1866.85039	0.23931
1864.92183	0.23787
1862.99326	0.23682
1861.06470	0.23674
1859.13613	0.23715
1857.20757	0.23744
1855.27900	0.23758
1853.35044	0.23784
1851.42187	0.23848
1849.49331	0.23953
1847.56475	0.24099
1845.63618	0.24283
1843.70762	0.24446
1841.77905	0.24448
1839.85049	0.24385
1837.92192	0.24426
1835.99336	0.24517
1834.06479	0.24606
1832.13623	0.24767
1830.20767	0.25035
1828.27910	0.25228
1826.35054	0.25290
1824.42197	0.25370
1822.49341	0.25424
1820.56484	0.25471
1818.63628	0.25584
1816.70771	0.25749
1814.77915	0.25917
1812.85059	0.26131
1810.92202	0.26397
1808.99346	0.26605
1807.06489	0.26743
1805.13633	0.26909
1803.20776	0.27175
1801.27920	0.27511
1799.35063	0.27826
1797.42207	0.28058
1795.49351	0.28307
1793.56494	0.28673
1791.63638	0.29098
1789.70781	0.29335
1787.77925	0.29457
1785.85068	0.29728
1783.92212	0.30119
1781.99355	0.30548
1780.06499	0.30987
1778.13643	0.31400
1776.20786	0.31817
1774.27930	0.32371
1772.35073	0.33127
1770.42217	0.33755
1768.49360	0.34118
1766.56504	0.34479
1764.63647	0.34948
1762.70791	0.35570
1760.77935	0.36343
1758.85078	0.37009
1756.92222	0.37682
1754.99365	0.38410
1753.06509	0.39104
1751.13652	0.40046
1749.20796	0.41236
1747.27939	0.42272
1745.35083	0.43100
1743.42227	0.44005
1741.49370	0.45051
1739.56514	0.46294
1737.63657	0.47537
1735.70801	0.48713
1733.77944	0.50520
1731.85088	0.52454
1729.92231	0.53831
1727.99375	0.55247
1726.06519	0.56851
1724.13662	0.58698
1722.20806	0.60720
1720.27949	0.62643
1718.35093	0.65029
1716.42236	0.68445
1714.49380	0.71389
1712.56523	0.73637
1710.63667	0.75914
1708.70811	0.78522
1706.77954	0.81605
1704.85098	0.85269
1702.92241	0.88479
1700.99385	0.91701
1699.06528	0.96518
1697.13672	1.00854
1695.20815	1.05190
1693.27959	1.09388
1691.35103	1.12863
1689.42246	1.17028
1687.49390	1.21520
1685.56533	1.25954
1683.63677	1.32696
1681.70820	1.39443
1679.77964	1.43659
1677.85107	1.47716
1675.92251	1.52484
1673.99395	1.58517
1672.06538	1.63999
1670.13682	1.69440
1668.20825	1.76409
1666.27969	1.82062
1664.35112	1.86996
1662.42256	1.93370
1660.49399	2.00671
1658.56543	2.06277
1656.63687	2.10613
1654.70830	2.14575
1652.77974	2.20866
1650.85117	2.26731
1648.92261	2.28796
1646.99404	2.31318
1645.06548	2.33597
1643.13691	2.34837
1641.20835	2.35535
1639.27979	2.36232
1637.35122	2.36497
1635.42266	2.36115
1633.49409	2.35102
1631.56553	2.33564
1629.63696	2.31758
1627.70840	2.28812
1625.77983	2.25302
1623.85127	2.20838
1621.92271	2.15281
1619.99414	2.10340
1618.06558	2.05725
1616.13701	1.99215
1614.20845	1.92421
1612.27988	1.87177
1610.35132	1.81767
1608.42275	1.75946
1606.49419	1.70262
1604.56562	1.65098
1602.63706	1.60154
1600.70850	1.55339
1598.77993	1.50929
1596.85137	1.46829
1594.92280	1.42868
1592.99424	1.39036
1591.06567	1.35574
1589.13711	1.32416
1587.20854	1.29498
1585.27998	1.26795
1583.35142	1.24312
1581.42285	1.22116
1579.49429	1.20329
1577.56572	1.18868
1575.63716	1.17082
1573.70859	1.15349
1571.78003	1.14283
1569.85146	1.13407
1567.92290	1.12407
1565.99434	1.11634
1564.06577	1.11223
1562.13721	1.11085
1560.20864	1.11353
1558.28008	1.12260
1556.35151	1.12751
1554.42295	1.12845
1552.49438	1.13025
1550.56582	1.13078
1548.63726	1.12852
1546.70869	1.12391
1544.78013	1.11717
1542.85156	1.10771
1540.92300	1.09134
1538.99443	1.05959
1537.06587	1.03321
1535.13730	1.01598
1533.20874	0.99456
1531.28018	0.97104
1529.35161	0.95407
1527.42305	0.93947
1525.49448	0.92503
1523.56592	0.91322
1521.63735	0.90222
1519.70879	0.88937
1517.78022	0.87752
1515.85166	0.86378
1513.92310	0.84900
1511.99453	0.83677
1510.06597	0.82721
1508.13740	0.81929
1506.20884	0.80387
1504.28027	0.78631
1502.35171	0.77632
1500.42314	0.76931
1498.49458	0.76292
1496.56602	0.75486
1494.63745	0.74566
1492.70889	0.73883
1490.78032	0.73428
1488.85176	0.72910
1486.92319	0.72213
1484.99463	0.71573
1483.06606	0.71137
1481.13750	0.70853
1479.20894	0.70662
1477.28037	0.70621
1475.35181	0.70753
1473.42324	0.70944
1471.49468	0.70876
1469.56611	0.70522
1467.63755	0.70222
1465.70898	0.70085
1463.78042	0.69998
1461.85186	0.69925
1459.92329	0.70032
1457.99473	0.70362
1456.06616	0.70458
1454.13760	0.70043
1452.20903	0.69614
1450.28047	0.69286
1448.35190	0.69029
1446.42334	0.68730
1444.49478	0.68405
1442.56621	0.68126
1440.63765	0.67876
1438.70908	0.67663
1436.78052	0.67418
1434.85195	0.67020
1432.92339	0.66644
1430.99482	0.66441
1429.06626	0.66354
1427.13770	0.66317
1425.20913	0.66386
1423.28057	0.66544
1421.35200	0.66686
1419.42344	0.66838
1417.49487	0.66877
1415.56631	0.66681
1413.63774	0.66502
1411.70918	0.66470
1409.78062	0.66553
1407.85205	0.66709
1405.92349	0.66938
1403.99492	0.67149
1402.06636	0.67221
1400.13779	0.67214
1398.20923	0.67123
1396.28066	0.66876
1394.35210	0.66447
1392.42354	0.65893
1390.49497	0.65400
1388.56641	0.64982
1386.63784	0.64477
1384.70928	0.63869
1382.78071	0.63311
1380.85215	0.62831
1378.92358	0.62425
1376.99502	0.62138
1375.06646	0.61987
1373.13789	0.61867
1371.20933	0.61733
1369.28076	0.61630
1367.35220	0.61510
1365.42363	0.61364
1363.49507	0.61249
1361.56650	0.61102
1359.63794	0.60882
1357.70937	0.60687
1355.78081	0.60540
1353.85225	0.60416
1351.92368	0.60317
1349.99512	0.60251
1348.06655	0.60186
1346.13799	0.60100
1344.20942	0.60023
1342.28086	0.59996
1340.35229	0.60015
1338.42373	0.59972
1336.49517	0.59838
1334.56660	0.59733
1332.63804	0.59704
1330.70947	0.59712
1328.78091	0.59741
1326.85234	0.59804
1324.92378	0.59888
1322.99521	0.59987
1321.06665	0.60105
1319.13809	0.60220
1317.20952	0.60280
1315.28096	0.60273
1313.35239	0.60235
1311.42383	0.60176
1309.49526	0.60106
1307.56670	0.60037
1305.63813	0.59968
1303.70957	0.59889
1301.78101	0.59799
1299.85244	0.59701
1297.92388	0.59599
1295.99531	0.59483
1294.06675	0.59345
1292.13818	0.59205
1290.20962	0.59075
1288.28105	0.58932
1286.35249	0.58767
1284.42393	0.58614
1282.49536	0.58481
1280.56680	0.58345
1278.63823	0.58196
1276.70967	0.58045
1274.78110	0.57923
1272.85254	0.57849
1270.92397	0.57785
1268.99541	0.57692
1267.06685	0.57584
1265.13828	0.57481
1263.20972	0.57393
1261.28115	0.57324
1259.35259	0.57252
1257.42402	0.57164
1255.49546	0.57103
1253.56689	0.57099
1251.63833	0.57124
1249.70977	0.57138
1247.78120	0.57128
1245.85264	0.57104
1243.92407	0.57055
1241.99551	0.56959
1240.06694	0.56810
1238.13838	0.56617
1236.20981	0.56390
1234.28125	0.56140
1232.35269	0.55880
1230.42412	0.55637
1228.49556	0.55417
1226.56699	0.55202
1224.63843	0.55001
1222.70986	0.54818
1220.78130	0.54640
1218.85273	0.54483
1216.92417	0.54366
1214.99561	0.54262
1213.06704	0.54137
1211.13848	0.54015
1209.20991	0.53926
1207.28135	0.53866
1205.35278	0.53811
1203.42422	0.53742
1201.49565	0.53650
1199.56709	0.53542
1197.63853	0.53432
1195.70996	0.53348
1193.78140	0.53288
1191.85283	0.53229
1189.92427	0.53164
1187.99570	0.53115
1186.06714	0.53096
1184.13857	0.53104
1182.21001	0.53148
1180.28145	0.53240
1178.35288	0.53372
1176.42432	0.53529
1174.49575	0.53679
1172.56719	0.53782
1170.63862	0.53824
1168.71006	0.53830
1166.78149	0.53840
1164.85293	0.53869
1162.92437	0.53891
1160.99580	0.53892
1159.06724	0.53879
1157.13867	0.53843
1155.21011	0.53773
1153.28154	0.53656
1151.35298	0.53471
1149.42441	0.53219
1147.49585	0.52934
1145.56729	0.52662
1143.63872	0.52416
1141.71016	0.52199
1139.78159	0.52019
1137.85303	0.51892
1135.92446	0.51827
1133.99590	0.51805
1132.06733	0.51813
1130.13877	0.51849
1128.21021	0.51867
1126.28164	0.51833
1124.35308	0.51782
1122.42451	0.51739
1120.49595	0.51712
1118.56738	0.51723
1116.63882	0.51766
1114.71025	0.51818
1112.78169	0.51885
1110.85312	0.51974
1108.92456	0.52074
1106.99600	0.52166
1105.06743	0.52249
1103.13887	0.52337
1101.21030	0.52469
1099.28174	0.52655
1097.35317	0.52856
1095.42461	0.53088
1093.49604	0.53421
1091.56748	0.53896
1089.63892	0.54501
1087.71035	0.55213
1085.78179	0.56021
1083.85322	0.56871
1081.92466	0.57616
1079.99609	0.58134
1078.06753	0.58401
1076.13896	0.58378
1074.21040	0.58043
1072.28184	0.57475
1070.35327	0.56810
1068.42471	0.56126
1066.49614	0.55450
1064.56758	0.54817
1062.63901	0.54242
1060.71045	0.53718
1058.78188	0.53255
1056.85332	0.52859
1054.92476	0.52522
1052.99619	0.52233
1051.06763	0.51997
1049.13906	0.51832
1047.21050	0.51718
1045.28193	0.51644
1043.35337	0.51618
1041.42480	0.51604
1039.49624	0.51574
1037.56768	0.51537
1035.63911	0.51491
1033.71055	0.51428
1031.78198	0.51329
1029.85342	0.51178
1027.92485	0.50989
1025.99629	0.50797
1024.06772	0.50656
1022.13916	0.50584
1020.21060	0.50541
1018.28203	0.50509
1016.35347	0.50483
1014.42490	0.50454
1012.49634	0.50429
1010.56777	0.50409
1008.63921	0.50401
1006.71064	0.50430
1004.78208	0.50529
1002.85352	0.50726
1000.92495	0.50999
998.99639	0.51322
997.06782	0.51705
995.13926	0.52155
993.21069	0.52615
991.28213	0.52970
989.35356	0.53164
987.42500	0.53230
985.49644	0.53223
983.56787	0.53200
981.63931	0.53211
979.71074	0.53275
977.78218	0.53392
975.85361	0.53558
973.92505	0.53790
971.99648	0.54088
970.06792	0.54421
968.13936	0.54777
966.21079	0.55149
964.28223	0.55560
962.35366	0.56037
960.42510	0.56544
958.49653	0.57059
956.56797	0.57612
954.63940	0.58219
952.71084	0.58854
950.78228	0.59488
948.85371	0.60122
946.92515	0.60766
944.99658	0.61380
943.06802	0.61949
941.13945	0.62549
939.21089	0.63199
937.28232	0.63832
935.35376	0.64445
933.42520	0.65045
931.49663	0.65592
929.56807	0.66130
927.63950	0.66720
925.71094	0.67334
923.78237	0.67920
921.85381	0.68482
919.92524	0.69111
917.99668	0.69846
916.06812	0.70591
914.13955	0.71324
912.21099	0.72116
910.28242	0.72951
908.35386	0.73797
906.42529	0.74675
904.49673	0.75567
902.56816	0.76480
900.63960	0.77428
898.71104	0.78333
896.78247	0.79214
894.85391	0.80224
892.92534	0.81328
890.99678	0.82412
889.06821	0.83477
887.13965	0.84511
885.21108	0.85581
883.28252	0.86724
881.35396	0.87829
879.42539	0.88919
877.49683	0.90038
875.56826	0.91110
873.63970	0.92144
871.71113	0.93264
869.78257	0.94416
867.85400	0.95515
865.92544	0.96739
863.99687	0.98062
862.06831	0.99169
860.13975	1.00123
858.21118	1.01294
856.28262	1.02657
854.35405	1.03852
852.42549	1.04851
850.49692	1.05988
848.56836	1.07240
846.63979	1.08321
844.71123	1.09417
842.78267	1.10678
840.85410	1.11913
838.92554	1.12955
836.99697	1.13817
835.06841	1.14810
833.13984	1.16059
831.21128	1.17272
829.28271	1.18493
827.35415	1.19831
825.42559	1.20821
823.49702	1.21755
821.56846	1.23148
819.63989	1.23977
817.71133	1.23997
815.78276	1.24707
813.85420	1.26174
811.92563	1.27244
809.99707	1.28008
808.06851	1.29053
806.13994	1.30062
804.21138	1.30802
802.28281	1.32427
800.35425	1.33565
798.42568	1.31849
796.49712	1.30390
794.56855	1.30526
792.63999	1.30123
790.71143	1.28882
788.78286	1.27256
786.85430	1.27230
784.92573	1.31579
782.99717	1.38159
781.06860	1.40388
779.14004	1.39794
777.21147	1.42889
775.28291	1.45906
773.35435	1.42720
771.42578	1.43841
769.49722	1.52414
767.56865	1.53298
765.64009	1.48342
763.71152	1.39548
761.78296	1.24100
759.85439	1.16364
757.92583	1.17066
755.99727	1.14684
754.06870	1.10107
752.14014	1.13322
750.21157	1.25704
748.28301	1.35584
746.35444	1.29281
744.42588	1.14240
742.49731	1.01415
740.56875	0.92504
738.64019	0.83137
736.71162	0.72739
734.78306	0.63368
732.85449	0.57383
730.92593	0.56489
728.99736	0.54459
727.06880	0.45208
725.14023	0.37735
723.21167	0.36287
721.28311	0.30688
719.35454	0.21199
717.42598	0.20287
715.49741	0.27046
713.56885	0.35866
711.64028	0.41071
709.71172	0.45805
707.78315	0.55895
705.85459	0.51811
703.92603	0.37529
701.99746	0.31811
700.06890	0.33903
698.14033	0.38667
696.21177	0.38662
694.28320	0.39737
692.35464	0.39992
690.42607	0.36340
688.49751	0.36588
686.56895	0.46636
684.64038	0.51121
682.71182	0.37178
680.78325	0.25885
678.85469	0.26285
676.92612	0.33840
674.99756	0.38993
673.06899	0.36381
671.14043	0.33610
669.21187	0.36104
667.28330	0.36852
665.35474	0.29680
663.42617	0.24082
661.49761	0.20992
659.56904	0.18938
657.64048	0.20831
655.71191	0.23919
653.78335	0.23958
651.85479	0.21347
649.92622	0.18859
647.99766	0.19617
646.06909	0.18986
644.14053	0.17537
642.21196	0.22683
640.28340	0.29195
638.35483	0.28830
636.42627	0.24359
634.49771	0.21814
632.56914	0.25761
630.64058	0.32847
628.71201	0.38573
626.78345	0.40229
624.85488	0.33910
622.92632	0.25039
620.99775	0.19599
619.06919	0.21598
617.14062	0.30043
615.21206	0.42080
613.28350	0.46798
611.35493	0.37233
609.42637	0.32899
607.49780	0.37972
605.56924	0.36373
603.64067	0.32515
601.71211	0.44745
599.78354	0.44271
597.85498	0.27443
595.92642	0.20071
593.99785	0.20847
592.06929	0.23173
590.14072	0.21985
588.21216	0.20342
586.28359	0.23092
584.35503	0.24743
582.42646	0.24108
580.49790	0.27440
578.56934	0.28748
576.64077	0.27074
574.71221	0.30005
572.78364	0.32489
570.85508	0.26073
568.92651	0.18350
566.99795	0.21826
565.06938	0.38840
563.14082	0.42484
561.21226	0.30062
559.28369	0.26584
557.35513	0.30277
555.42656	0.35162
553.49800	0.33626
551.56943	0.29693
549.64087	0.31052
547.71230	0.30085
545.78374	0.25343
543.85518	0.27623
541.92661	0.40506
539.99805	0.61091
538.06948	0.46696
536.14092	0.24315
534.21235	0.17238
532.28379	0.17715
530.35522	0.17862
528.42666	0.19544
526.49810	0.23295
524.56953	0.25995
522.64097	0.28629
520.71240	0.27564
518.78384	0.25180
516.85527	0.29887
514.92671	0.36156
512.99814	0.32705
511.06958	0.28284
509.14102	0.26739
507.21245	0.26602
505.28389	0.27008
503.35532	0.24032
501.42676	0.19021
499.49819	0.17028
